2.671014423045562580e+00
2.674554135068319738e+00
2.680989975109696388e+00
2.686460439144866541e+00
2.689356567163486034e+00
2.690643735171761364e+00
2.685173271136591211e+00
2.674554135068319738e+00
2.663613206997979432e+00
2.658786326966946945e+00
2.661360662983497605e+00
2.665865751012461260e+00
2.670049047039356083e+00
2.670692631043493748e+00
2.668440087029011920e+00
2.664900375006254762e+00
2.659751702973153442e+00
2.656855574954533949e+00
2.655890198948327452e+00
2.654603030940052122e+00
2.655246614944189787e+00
2.655568406946258619e+00
2.660073494975222275e+00
2.666187543014530092e+00
2.672945175057975575e+00
2.678737431095214561e+00
2.683242519124178216e+00
2.684207895130384713e+00
2.683242519124178216e+00
2.681955351115902886e+00
2.679702807101421058e+00
2.676806679082801566e+00
2.673588759062113240e+00
2.671014423045562580e+00
2.668440087029011920e+00
2.666187543014530092e+00
2.664578583004185930e+00
2.664578583004185930e+00
2.665865751012461260e+00
2.667796503024874255e+00
2.670049047039356083e+00
2.674554135068319738e+00
2.677772055089008063e+00
2.678415639093145728e+00
2.678737431095214561e+00
2.678415639093145728e+00
2.679381015099352226e+00
2.679702807101421058e+00
2.678093847091076896e+00
2.672623383055906743e+00
2.663934999000048265e+00
2.656533782952465117e+00
2.652350486925570294e+00
2.655890198948327452e+00
2.663291414995910600e+00
2.670692631043493748e+00
2.675841303076595068e+00
2.678737431095214561e+00
2.677772055089008063e+00
2.673910551064182073e+00
2.666831127018667758e+00
2.656533782952465117e+00
2.645271062880055979e+00
2.634008342807646841e+00
2.623710998741444200e+00
2.612770070671103895e+00
2.601829142600763589e+00
2.593784342549042776e+00
2.591210006532492116e+00
2.595393302559386939e+00
2.605047062621451914e+00
2.616309782693861052e+00
2.629503254778683186e+00
2.639800598844885826e+00
2.646880022890400141e+00
2.652672278927639127e+00
2.656533782952465117e+00
2.659751702973153442e+00
2.661360662983497605e+00
2.665222167008323595e+00
2.667474711022805423e+00
2.667474711022805423e+00
2.665222167008323595e+00
2.661360662983497605e+00
2.658142742962809280e+00
2.655246614944189787e+00
2.652350486925570294e+00
2.648810774902813137e+00
2.643983894871780649e+00
2.640444182849023491e+00
2.637869846832472831e+00
2.635617302817991003e+00
2.631755798793165013e+00
2.628859670774545521e+00
2.625319958751788363e+00
2.618884118710411713e+00
2.613413654675241560e+00
2.610517526656622067e+00
2.608908566646277905e+00
2.608264982642140239e+00
2.608264982642140239e+00
2.608908566646277905e+00
2.608908566646277905e+00
2.608264982642140239e+00
2.606656022631796077e+00
2.603438102611107752e+00
2.601185558596625924e+00
2.598611222580075264e+00
2.596358678565593436e+00
2.594106134551111609e+00
2.591853590536629781e+00
2.588313878513872623e+00
2.580912662466289476e+00
2.572546070412499830e+00
2.565144854364916682e+00
2.559996182331815362e+00
2.556134678306989372e+00
2.550986006273888052e+00
2.549055254261475056e+00
2.551629590278025717e+00
2.556134678306989372e+00
2.565144854364916682e+00
2.572867862414568663e+00
2.579625494458014145e+00
2.583486998482840136e+00
2.584774166491115466e+00
2.585095958493184298e+00
2.583808790484908968e+00
2.581234454468358308e+00
2.578016534447669983e+00
2.574476822424912825e+00
2.570937110402155668e+00
2.569006358389742672e+00
2.566110230371123180e+00
2.563857686356641352e+00
2.561283350340090692e+00
2.556778262311127037e+00
2.551951382280094549e+00
2.547768086253199726e+00
2.547446294251130894e+00
2.549377046263543889e+00
2.552273174282163382e+00
2.554525718296645209e+00
2.554847510298714042e+00
2.554847510298714042e+00
2.553560342290438712e+00
2.551951382280094549e+00
2.550020630267681554e+00
2.548089878255268559e+00
2.547446294251130894e+00
2.545837334240786731e+00
2.545193750236649066e+00
2.541975830215960741e+00
2.538757910195272416e+00
2.533931030164239928e+00
2.528460566129069775e+00
2.522990102093899623e+00
2.518485014064935967e+00
2.514623510040109977e+00
2.510440214013215154e+00
2.505291541980113834e+00
2.501108245953219011e+00
2.498212117934599519e+00
2.497890325932530686e+00
2.499499285942874849e+00
2.499499285942874849e+00
2.499821077944943681e+00
2.498855701938737184e+00
2.494994197913911194e+00
2.490810901887016371e+00
2.486949397862190381e+00
2.483731477841502056e+00
2.478904597810469568e+00
2.477295637800125405e+00
2.474721301783574745e+00
2.472468757769092917e+00
2.470216213754611090e+00
2.467641877738060430e+00
2.465067541721509770e+00
2.461527829698752612e+00
2.457344533671857789e+00
2.454126613651169464e+00
2.449621525622205809e+00
2.444472853589104488e+00
2.437071637541521341e+00
2.428705045487731695e+00
2.421625621442217380e+00
2.417120533413253725e+00
2.413580821390496567e+00
2.411650069378083572e+00
2.408110357355326414e+00
2.402318101318087429e+00
2.398134805291192606e+00
2.398778389295330271e+00
2.403605269326362759e+00
2.407144981349119917e+00
2.409719317365670577e+00
2.408110357355326414e+00
2.405857813340844586e+00
2.407144981349119917e+00
2.413259029388427734e+00
2.419373077427735552e+00
2.424843541462905705e+00
2.427739669481525198e+00
2.426452501473249868e+00
2.422590997448423877e+00
2.419694869429804385e+00
2.417764117417391390e+00
2.415511573402909562e+00
2.413580821390496567e+00
2.409397525363601744e+00
2.404892437334638089e+00
2.400387349305674434e+00
2.394595093268435448e+00
2.389124629233265296e+00
2.383010581193957478e+00
2.377861909160856158e+00
2.373035029129823670e+00
2.368208149098791182e+00
2.364668437076034024e+00
2.361772309057414532e+00
2.360163349047070369e+00
2.360485141049139202e+00
2.360163349047070369e+00
2.360163349047070369e+00
2.359197973040863872e+00
2.356945429026382044e+00
2.354049301007762551e+00
2.351796756993280724e+00
2.348900628974661231e+00
2.345682708953972906e+00
2.341821204929146916e+00
2.338281492906389758e+00
2.338281492906389758e+00
2.342142996931215748e+00
2.345360916951904073e+00
2.351153172989143059e+00
2.361450517055345699e+00
2.374000405136030167e+00
2.387193877220852301e+00
2.398456597293261439e+00
2.409075733361532912e+00
2.417120533413253725e+00
2.422912789450492710e+00
2.426774293475318700e+00
2.427739669481525198e+00
2.427096085477387533e+00
2.424521749460836872e+00
2.420016661431873217e+00
2.413580821390496567e+00
2.407144981349119917e+00
2.401352725311880931e+00
2.394916885270504281e+00
2.390411797241540626e+00
2.387193877220852301e+00
2.385906709212576970e+00
2.384297749202232808e+00
2.381723413185682148e+00
2.377540117158787325e+00
2.371747861121548340e+00
2.366599189088447019e+00
2.362415893061552197e+00
2.359197973040863872e+00
2.358876181038795039e+00
2.360163349047070369e+00
2.362415893061552197e+00
2.362737685063621029e+00
2.360163349047070369e+00
2.354049301007762551e+00
2.346004500956041738e+00
2.337316116900183260e+00
2.330880276858806610e+00
2.325409812823636457e+00
2.321870100800879300e+00
2.319295764784328640e+00
2.317365012771915644e+00
2.315756052761571482e+00
2.316077844763640314e+00
2.315434260759502649e+00
2.315434260759502649e+00
2.311250964732607827e+00
2.305136916693300009e+00
2.297413908643648028e+00
2.292908820614684373e+00
2.291621652606409043e+00
2.289369108591927215e+00
2.286472980573307723e+00
2.282289684546412900e+00
2.275210260500898585e+00
2.268130836455384269e+00
2.260407828405732289e+00
2.253006612358149141e+00
2.247536148322978988e+00
2.243996436300221831e+00
2.240134932275395840e+00
2.236595220252638683e+00
2.234020884236088023e+00
2.232733716227812693e+00
2.233699092234019190e+00
2.234020884236088023e+00
2.232733716227812693e+00
2.229515796207124367e+00
2.226941460190573707e+00
2.220505620149197057e+00
2.214391572109889239e+00
2.207955732068512589e+00
2.201198100025067106e+00
2.193796883977483958e+00
2.188004627940244973e+00
2.184464915917487815e+00
2.184143123915418983e+00
2.184143123915418983e+00
2.183821331913350150e+00
2.183177747909212485e+00
2.180603411892661825e+00
2.177385491871973500e+00
2.172880403843009844e+00
2.167409939807839692e+00
2.163226643780944869e+00
2.158721555751981214e+00
2.155503635731292889e+00
2.152285715710604563e+00
2.150033171696122736e+00
2.149067795689916238e+00
2.146815251675434411e+00
2.145528083667159081e+00
2.139735827629920095e+00
2.133621779590612277e+00
2.128794899559579790e+00
2.127185939549235627e+00
2.127185939549235627e+00
2.126864147547166795e+00
2.128151315555442125e+00
2.129760275565786287e+00
2.131369235576130450e+00
2.133621779590612277e+00
2.136517907609231770e+00
2.138448659621644765e+00
2.140379411634057760e+00
2.142310163646470755e+00
2.144562707660952583e+00
2.144562707660952583e+00
2.144562707660952583e+00
2.142631955648539588e+00
2.139092243625782430e+00
2.136517907609231770e+00
2.134265363594749942e+00
2.131369235576130450e+00
2.127185939549235627e+00
2.123324435524409637e+00
2.119141139497514814e+00
2.118175763491308317e+00
2.116888595483032987e+00
2.114957843470619991e+00
2.113348883460275829e+00
2.111096339445794001e+00
2.110774547443725169e+00
2.113348883460275829e+00
2.116245011478895321e+00
2.117532179487170652e+00
2.116888595483032987e+00
2.114636051468551159e+00
2.110452755441656336e+00
2.108843795431312174e+00
2.105947667412692681e+00
2.101764371385797858e+00
2.096615699352696538e+00
2.089536275307182223e+00
2.081813267257530242e+00
2.076986387226497754e+00
2.074090259207878262e+00
2.073768467205809429e+00
2.074090259207878262e+00
2.075377427216153592e+00
2.076021011220291257e+00
2.075055635214084759e+00
2.070550547185121104e+00
2.063792915141675621e+00
2.056069907092023641e+00
2.048990483046509326e+00
2.046094355027889833e+00
2.047059731034096330e+00
2.048025107040302828e+00
2.047381523036165163e+00
2.044485395017545670e+00
2.042232851003063843e+00
2.039336722984444350e+00
2.034188050951343030e+00
2.029682962922379375e+00
2.026465042901691049e+00
2.023568914883071557e+00
2.022603538876865059e+00
2.024856082891346887e+00
2.028395794914104044e+00
2.031291922932723537e+00
2.030970130930654705e+00
2.030004754924448207e+00
2.027108626905828714e+00
2.023890706885140389e+00
2.019385618856176734e+00
2.015845906833419576e+00
2.012306194810662419e+00
2.008766482787905261e+00
2.003939602756872773e+00
1.997825554717564955e+00
1.991389714676188305e+00
1.986884626647224650e+00
1.985919250641018152e+00
1.985919250641018152e+00
1.984953874634811655e+00
1.984632082632742822e+00
1.983988498628605157e+00
1.983023122622398660e+00
1.983023122622398660e+00
1.979805202601710334e+00
1.974012946564471349e+00
1.967255314521025866e+00
1.960175890475511551e+00
1.956314386450685561e+00
1.953096466429997236e+00
1.950522130413446575e+00
1.947626002394827083e+00
1.944408082374138758e+00
1.942799122363794595e+00
1.943764498370001093e+00
1.944729874376207590e+00
1.945695250382414088e+00
1.946660626388620585e+00
1.947304210392758250e+00
1.947626002394827083e+00
1.947626002394827083e+00
1.946017042384482920e+00
1.943120914365863428e+00
1.939259410341037437e+00
1.933145362301729620e+00
1.926709522260352969e+00
1.919630098214838654e+00
1.912550674169324338e+00
1.906758418132085353e+00
1.903218706109328195e+00
1.903540498111397028e+00
1.908045586140360683e+00
1.914159634179668501e+00
1.919630098214838654e+00
1.921882642229320481e+00
1.920917266223113984e+00
1.918021138204494491e+00
1.915768594190012664e+00
1.915125010185874999e+00
1.915125010185874999e+00
1.912872466171393171e+00
1.909654546150704846e+00
1.906758418132085353e+00
1.906436626130016521e+00
1.906114834127947688e+00
1.905149458121741191e+00
1.904184082115534693e+00
1.902896914107259363e+00
1.901609746098984033e+00
1.901609746098984033e+00
1.901287954096915200e+00
1.899678994086571038e+00
1.897748242074158043e+00
1.895817490061745048e+00
1.893564946047263220e+00
1.892277778038987890e+00
1.890990610030712560e+00
1.889703442022437230e+00
1.889059858018299565e+00
1.886163729999680072e+00
1.881658641970716417e+00
1.878440721950028092e+00
1.874257425923133269e+00
1.871361297904513776e+00
1.868786961887963116e+00
1.866534417873481289e+00
1.865569041867274791e+00
1.865247249865205958e+00
1.864281873858999461e+00
1.864603665861068293e+00
1.864281873858999461e+00
1.864281873858999461e+00
1.864281873858999461e+00
1.863316497852792963e+00
1.861385745840379968e+00
1.858489617821760476e+00
1.854949905799003318e+00
1.852053777780383825e+00
1.849801233765901998e+00
1.846261521743144840e+00
1.843365393724525347e+00
1.840469265705905855e+00
1.839182097697630525e+00
1.836285969679011032e+00
1.833711633662460372e+00
1.830815505643840879e+00
1.827597585623152554e+00
1.824057873600395396e+00
1.821805329585913569e+00
1.820518161577638239e+00
1.817622033559018746e+00
1.815047697542468086e+00
1.812473361525917426e+00
1.810864401515573263e+00
1.808933649503160268e+00
1.807324689492816105e+00
1.805715729482471943e+00
1.802819601463852450e+00
1.797349137428682297e+00
1.791556881391443312e+00
1.783833873341791332e+00
1.779650577314896509e+00
1.779006993310758844e+00
1.778685201308690012e+00
1.779972369316965342e+00
1.784799249347997829e+00
1.793165841401787475e+00
1.802819601463852450e+00
1.812151569523848593e+00
1.821805329585913569e+00
1.830815505643840879e+00
1.837251345685217530e+00
1.838860305695561692e+00
1.836607761681079865e+00
1.833068049658322707e+00
1.831780881650047377e+00
1.833711633662460372e+00
1.835964177676942199e+00
1.837573137687286362e+00
1.836607761681079865e+00
1.835964177676942199e+00
1.833389841660391539e+00
1.825988625612808391e+00
1.817943825561087579e+00
1.810220817511435598e+00
1.801210641453508288e+00
1.794774801412131637e+00
1.791878673393512145e+00
1.790269713383167982e+00
1.787695377366617322e+00
1.786086417356273159e+00
1.786408209358341992e+00
1.788660753372823820e+00
1.791556881391443312e+00
1.795740177418338135e+00
1.799923473445232958e+00
1.803784977470058948e+00
1.806037521484540775e+00
1.806037521484540775e+00
1.803784977470058948e+00
1.800245265447301790e+00
1.795740177418338135e+00
1.790591505385236815e+00
1.785121041350066662e+00
1.779328785312827677e+00
1.774180113279726356e+00
1.768709649244556203e+00
1.765491729223867878e+00
1.763882769213523716e+00
1.763560977211454883e+00
1.764204561215592548e+00
1.765491729223867878e+00
1.768066065240418538e+00
1.770640401256969199e+00
1.773536529275588691e+00
1.778685201308690012e+00
1.784477457345928997e+00
1.788660753372823820e+00
1.790913297387305647e+00
1.789626129379030317e+00
1.785764625354204327e+00
1.781903121329378337e+00
1.779650577314896509e+00
1.779328785312827677e+00
1.780615953321103007e+00
1.783190289337653667e+00
1.787373585364548489e+00
1.793809425405925140e+00
1.801210641453508288e+00
1.807968273496953771e+00
1.812151569523848593e+00
1.813760529534192756e+00
1.812795153527986258e+00
1.811507985519710928e+00
1.811186193517642096e+00
1.810220817511435598e+00
1.808611857501091436e+00
1.807324689492816105e+00
1.805393937480403110e+00
1.801854225457645953e+00
1.795418385416269302e+00
1.789626129379030317e+00
1.783190289337653667e+00
1.778041617304552346e+00
1.773536529275588691e+00
1.769031441246625036e+00
1.764526353217661381e+00
1.760343057190766558e+00
1.757125137170078233e+00
1.753907217149389908e+00
1.752298257139045745e+00
1.752620049141114578e+00
1.755837969161802903e+00
1.760986641194904223e+00
1.764526353217661381e+00
1.768066065240418538e+00
1.769353233248693869e+00
1.767422481236280873e+00
1.763560977211454883e+00
1.756481553165940568e+00
1.743288081081118435e+00
1.728163856983883306e+00
1.712396048882510513e+00
1.697915408789413050e+00
1.684721936704590917e+00
1.674746384640457109e+00
1.670884880615631118e+00
1.673781008634250611e+00
1.681182224681833759e+00
1.690835984743898734e+00
1.700811536808032542e+00
1.710465296870097518e+00
1.718831888923887163e+00
1.727842064981814474e+00
1.736852241039741784e+00
1.746827793103875592e+00
1.757125137170078233e+00
1.763882769213523716e+00
1.769996817252831534e+00
1.772571153269382194e+00
1.773214737273519859e+00
1.771605777263175696e+00
1.770640401256969199e+00
1.768066065240418538e+00
1.768387857242487371e+00
1.769353233248693869e+00
1.771605777263175696e+00
1.772249361267313361e+00
1.777719825302483514e+00
1.784799249347997829e+00
1.790269713383167982e+00
1.796061969420406967e+00
1.800567057449370623e+00
1.799601681443164125e+00
1.795740177418338135e+00
1.788017169368686154e+00
1.776754449296277016e+00
1.764848145219730213e+00
1.753907217149389908e+00
1.746506001101806760e+00
1.741679121070774272e+00
1.737817617045948282e+00
1.737174033041810617e+00
1.740391953062498942e+00
1.746827793103875592e+00
1.750689297128701583e+00
1.755516177159734070e+00
1.760986641194904223e+00
1.766457105230074376e+00
1.773214737273519859e+00
1.779006993310758844e+00
1.782546705333516002e+00
1.783512081339722499e+00
1.779972369316965342e+00
1.775145489285932854e+00
1.769675025250762701e+00
1.766778897232143208e+00
1.767100689234212041e+00
1.768066065240418538e+00
1.768709649244556203e+00
1.771283985261106864e+00
1.771927569265244529e+00
1.773536529275588691e+00
1.773858321277657524e+00
1.770640401256969199e+00
1.765813521225936711e+00
1.759699473186628893e+00
1.753907217149389908e+00
1.749723921122495085e+00
1.747471377108013257e+00
1.746184209099737927e+00
1.747471377108013257e+00
1.746827793103875592e+00
1.746506001101806760e+00
1.746827793103875592e+00
1.746827793103875592e+00
1.747471377108013257e+00
1.747471377108013257e+00
1.746827793103875592e+00
1.747149585105944425e+00
1.748436753114219755e+00
1.749080337118357420e+00
1.751976465136976913e+00
1.754229009151458740e+00
1.752620049141114578e+00
1.749723921122495085e+00
1.744897041091462597e+00
1.739748369058361277e+00
1.734277905023191124e+00
1.726554896973539144e+00
1.716257552907336503e+00
1.705316624836996198e+00
1.693410320760449395e+00
1.682147600688040257e+00
1.668632336601149291e+00
1.651577360491501167e+00
1.632913424371508881e+00
1.615536656259791926e+00
1.601377808168763295e+00
1.592045840108767152e+00
1.585288208065321669e+00
1.584644624061184004e+00
1.591724048106698319e+00
1.604273936187382787e+00
1.618110992276342586e+00
1.633878800377715379e+00
1.651577360491501167e+00
1.667345168592873961e+00
1.680860432679764926e+00
1.691479568748036399e+00
1.699524368799757212e+00
1.704351248830789700e+00
1.705960208841133863e+00
1.703064080822514370e+00
1.696628240781137720e+00
1.690835984743898734e+00
1.688261648727348074e+00
1.689227024733554572e+00
1.689870608737692237e+00
1.688905232731485739e+00
1.689870608737692237e+00
1.694053904764587060e+00
1.701776912814239040e+00
1.712396048882510513e+00
1.723015184950781986e+00
1.731381777004571632e+00
1.737495825043879449e+00
1.737495825043879449e+00
1.733312529016984627e+00
1.726554896973539144e+00
1.721728016942506656e+00
1.722049808944575489e+00
1.722371600946644321e+00
1.719153680925955996e+00
1.711752464878372848e+00
1.702742288820445538e+00
1.696628240781137720e+00
1.692766736756311730e+00
1.685687312710797414e+00
1.676677136652870104e+00
1.663483664568047971e+00
1.650290192483225837e+00
1.638705680408747867e+00
1.631626256363233551e+00
1.627442960336338729e+00
1.626799376332201064e+00
1.629695504350820556e+00
1.637418512400472537e+00
1.652864528499776497e+00
1.676355344650801271e+00
1.703385872824583203e+00
1.729451024992158636e+00
1.751011089130770415e+00
1.769353233248693869e+00
1.784155665343860164e+00
1.790591505385236815e+00
1.791878673393512145e+00
1.788982545374892652e+00
1.779972369316965342e+00
1.766457105230074376e+00
1.750045713124563918e+00
1.729451024992158636e+00
1.707890960853546858e+00
1.686009104712866247e+00
1.666379792586667463e+00
1.649324816477019340e+00
1.636453136394266039e+00
1.628086544340476394e+00
1.621328912297030911e+00
1.618110992276342586e+00
1.621328912297030911e+00
1.626799376332201064e+00
1.633878800377715379e+00
1.643854352441849187e+00
1.651899152493570000e+00
1.653186320501845330e+00
1.646750480460468680e+00
1.635487760388059542e+00
1.624868624319788069e+00
1.612962320243241265e+00
1.602986768179107457e+00
1.596229136135661975e+00
1.591402256104629487e+00
1.586897168075665832e+00
1.584644624061184004e+00
1.584644624061184004e+00
1.589471504092216492e+00
1.596872720139799640e+00
1.603952144185313955e+00
1.611675152234965935e+00
1.624868624319788069e+00
1.641601808427367359e+00
1.658013200532877818e+00
1.680860432679764926e+00
1.706925584847340360e+00
1.737174033041810617e+00
1.770640401256969199e+00
1.802819601463852450e+00
1.827275793621083722e+00
1.843687185726594180e+00
1.857202449813485146e+00
1.866856209875550121e+00
1.875222801929339767e+00
1.888094482012093067e+00
1.905149458121741191e+00
1.920273682218976319e+00
1.932501778297591954e+00
1.941833746357588097e+00
1.946338834386551753e+00
1.944729874376207590e+00
1.937972242332762107e+00
1.927031314262421802e+00
1.908045586140360683e+00
1.884232977987267077e+00
1.861063953838311136e+00
1.840469265705905855e+00
1.825666833610739559e+00
1.817943825561087579e+00
1.817622033559018746e+00
1.824379665602464229e+00
1.836929553683148697e+00
1.852053777780383825e+00
1.867821585881756619e+00
1.882624017976922914e+00
1.895495698059676215e+00
1.908045586140360683e+00
1.921882642229320481e+00
1.936363282322417945e+00
1.948591378401033580e+00
1.953418258432066068e+00
1.947304210392758250e+00
1.933788946305867285e+00
1.917055762198287994e+00
1.900322578090708703e+00
1.884232977987267077e+00
1.865569041867274791e+00
1.851088401774177328e+00
1.839825681701768190e+00
1.832424465654185042e+00
1.827275793621083722e+00
1.821805329585913569e+00
1.812795153527986258e+00
1.805072145478334278e+00
1.802176017459714785e+00
1.807324689492816105e+00
1.818587409565225244e+00
1.832102673652116209e+00
1.848192273755557835e+00
1.866212625871412456e+00
1.883911185985198244e+00
1.897104658070020378e+00
1.903862290113465860e+00
1.900966162094846368e+00
1.885520145995542407e+00
1.856237073807278648e+00
1.812795153527986258e+00
1.760664849192835391e+00
1.705960208841133863e+00
1.656726032524602488e+00
1.617467408272204921e+00
1.586575376073596999e+00
1.562119183916365728e+00
1.546351375814992934e+00
1.537019407754996791e+00
1.529296399705344811e+00
1.528331023699138314e+00
1.537984783761203289e+00
1.556648719881195575e+00
1.579495952028082684e+00
1.603308560181176290e+00
1.630017296352889389e+00
1.656726032524602488e+00
1.678607888665283099e+00
1.698558992793550715e+00
1.718510096921818331e+00
1.740070161060430110e+00
1.758734097180422395e+00
1.772892945271451026e+00
1.779650577314896509e+00
1.781903121329378337e+00
1.784799249347997829e+00
1.785442833352135494e+00
1.782868497335584834e+00
1.775467281288001686e+00
1.775145489285932854e+00
1.780294161319034174e+00
1.790269713383167982e+00
1.805072145478334278e+00
1.819874577573500574e+00
1.824701457604533061e+00
1.817300241556949914e+00
1.799279889441095293e+00
1.773536529275588691e+00
1.750689297128701583e+00
1.732347153010778129e+00
1.715292176901130006e+00
1.707247376849409193e+00
1.712074256880441681e+00
1.732668945012846962e+00
1.763239185209386051e+00
1.799601681443164125e+00
1.842078225716250017e+00
1.889703442022437230e+00
1.942477330361725762e+00
1.990746130672050640e+00
2.026465042901691049e+00
2.044163603015476838e+00
2.039658514986513183e+00
2.014880530827213079e+00
1.976587282581022009e+00
1.928962066274834797e+00
1.878762513952096924e+00
1.825345041608670726e+00
1.769675025250762701e+00
1.718188304919749498e+00
1.671206672617699951e+00
1.620041744288755581e+00
1.563728143926709890e+00
1.509345295577077195e+00
1.462363663275027648e+00
1.423748623026767746e+00
1.395430926844710484e+00
1.382237454759888351e+00
1.389638670807471499e+00
1.416669198981253430e+00
1.459145743254339322e+00
1.512885007599834353e+00
1.570807567972224206e+00
1.624546832317719236e+00
1.674424592638388276e+00
1.721728016942506656e+00
1.772892945271451026e+00
1.824701457604533061e+00
1.871683089906582609e+00
1.908045586140360683e+00
1.925744146254146472e+00
1.927031314262421802e+00
1.913516050175530836e+00
1.885198353993473575e+00
1.839825681701768190e+00
1.782546705333516002e+00
1.727520272979745641e+00
1.689227024733554572e+00
1.669919504609424621e+00
1.673781008634250611e+00
1.704994832834927365e+00
1.757768721174215898e+00
1.819874577573500574e+00
1.883589393983129412e+00
1.937006866326555610e+00
1.971438610547920689e+00
1.982701330620329827e+00
1.972403986554127187e+00
1.947626002394827083e+00
1.902896914107259363e+00
1.836929553683148697e+00
1.761308433196973056e+00
1.683756560698384419e+00
1.605561104195658118e+00
1.524469519674312323e+00
1.443056143150897697e+00
1.366147854656446725e+00
1.300180494232336059e+00
1.250302733911667019e+00
1.222950413735816255e+00
1.214262029679957777e+00
1.213940237677888945e+00
1.218445325706852600e+00
1.228099085768917575e+00
1.240648973849602044e+00
1.258669325965456665e+00
1.277011470083380118e+00
1.298893326224060729e+00
1.327532814408186823e+00
1.356172302592312917e+00
1.384489998774370179e+00
1.418278158991597593e+00
1.462685455277096480e+00
1.505161999550182372e+00
1.537019407754996791e+00
1.557292303885333240e+00
1.561475599912228063e+00
1.551178255846025422e+00
1.538306575763272122e+00
1.530583567713620141e+00
1.548603919829474762e+00
1.599447056156350300e+00
1.670884880615631118e+00
1.743288081081118435e+00
1.811507985519710928e+00
1.873292049916926771e+00
1.925422354252077639e+00
1.974656530568609014e+00
2.032579090940998867e+00
2.102086163387866691e+00
2.184464915917487815e+00
2.269096212461590767e+00
2.342142996931215748e+00
2.402961685322225094e+00
2.445438229595310986e+00
2.463458581711165607e+00
2.455413781659444794e+00
2.420660245436010882e+00
2.363381269067758694e+00
2.285507604567101225e+00
2.186717459931969643e+00
2.067654419166501611e+00
1.937006866326555610e+00
1.805072145478334278e+00
1.673137424630112946e+00
1.538628367765340954e+00
1.402188558888155967e+00
1.276367886079242453e+00
1.171785485406871885e+00
1.097129740926902741e+00
1.039528972556581721e+00
9.880422522255685180e-01
9.622988920600619167e-01
9.931909242586698383e-01
1.089406732877250761e+00
1.220054285717196763e+00
1.346518542530247942e+00
1.464294415287440643e+00
1.579495952028082684e+00
1.687618064723210409e+00
1.780615953321103007e+00
1.844330769730731845e+00
1.863316497852792963e+00
1.848835857759695500e+00
1.822127121587982401e+00
1.799279889441095293e+00
1.786730001360410824e+00
1.782546705333516002e+00
1.783512081339722499e+00
1.784477457345928997e+00
1.779328785312827677e+00
1.762595601205248386e+00
1.732668945012846962e+00
1.697271824785275385e+00
1.675389968644594774e+00
1.675389968644594774e+00
1.689870608737692237e+00
1.723015184950781986e+00
1.779328785312827677e+00
1.856880657811416313e+00
1.941511954355519265e+00
2.009410066792042926e+00
2.043198227009270340e+00
2.046416147029958665e+00
2.034188050951343030e+00
2.024534290889278054e+00
2.026465042901691049e+00
2.044807187019614503e+00
2.080204307247186080e+00
2.118819347495445982e+00
2.146171667671296746e+00
2.157434387743705884e+00
2.150033171696122736e+00
2.112383507454069331e+00
2.039980306988582015e+00
1.941190162353450432e+00
1.838538513693492860e+00
1.757446929172147065e+00
1.710143504868028685e+00
1.703707664826652035e+00
1.744897041091462597e+00
1.826954001619014889e+00
1.932179986295523122e+00
2.047381523036165163e+00
2.164192019787151366e+00
2.278106388519518077e+00
2.370138901111204177e+00
2.425487125467043370e+00
2.438037013547727838e+00
2.403283477324293926e+00
2.324444436817429960e+00
2.211495444091269746e+00
2.068941587174776942e+00
1.900322578090708703e+00
1.714005008892854676e+00
1.529939983709482476e+00
1.354563342581968755e+00
1.204930061619961634e+00
1.103243788966210559e+00
1.055296780657954514e+00
1.060445452691055834e+00
1.116437261051032692e+00
1.227133709762711078e+00
1.386742542788852006e+00
1.583035664050839841e+00
1.798636305436957628e+00
2.002330642746528611e+00
2.165157395793357864e+00
2.277784596517449245e+00
2.347613460966385901e+00
2.374965781142236665e+00
2.361450517055345699e+00
2.313825300749158487e+00
2.234986260242294520e+00
2.140379411634057760e+00
2.058966035110643134e+00
1.997503762715496123e+00
1.952452882425859571e+00
1.918342930206563324e+00
1.891955986036919057e+00
1.860098577832104638e+00
1.824379665602464229e+00
1.786086417356273159e+00
1.753585425147321075e+00
1.731703569006640464e+00
1.714648592896992341e+00
1.714326800894923508e+00
1.731703569006640464e+00
1.765169937221799046e+00
1.806359313486609608e+00
1.862029329844517633e+00
1.929605650278972462e+00
1.983988498628605157e+00
2.022281746874796227e+00
2.065080083149950951e+00
2.116566803480964154e+00
2.173523987847147509e+00
2.219218452140921727e+00
2.241100308281602338e+00
2.248179732327116653e+00
2.238847764267120510e+00
2.208599316072650254e+00
2.164835603791289032e+00
2.109165587433381006e+00
2.041911059000995010e+00
1.992355090682394803e+00
1.975621906574815512e+00
1.981092370609985664e+00
2.011340818804455921e+00
2.066367251158226281e+00
2.129438483563717455e+00
2.172558611840941012e+00
2.169340691820252687e+00
2.106591251416830346e+00
1.984310290630673990e+00
1.807646481494884938e+00
1.596872720139799640e+00
1.386420750786783174e+00
1.214583821682026610e+00
1.118368013063445687e+00
1.112253965024137869e+00
1.191093005531001836e+00
1.342657038505421951e+00
1.549569295835681260e+00
1.792844049399718642e+00
2.037727762974100187e+00
2.249466900335391983e+00
2.396847637282917276e+00
2.464745749719440937e+00
2.451230485632549971e+00
2.373678613133961335e+00
2.252363028354011476e+00
2.123968019528547302e+00
2.019707410858245566e+00
1.959532306471373886e+00
1.950843922415515408e+00
1.971116818545851856e+00
2.013915154821006581e+00
2.089536275307182223e+00
2.197658388002309948e+00
2.319939348788466305e+00
2.441254933568416163e+00
2.547768086253199726e+00
2.625641750753857195e+00
2.683886103128315881e+00
2.724110103386919945e+00
2.741808663500705734e+00
2.722501143376575783e+00
2.655890198948327452e+00
2.549698838265612721e+00
2.422912789450492710e+00
2.291299860604340211e+00
2.165800979797495529e+00
2.053495571075472981e+00
1.955349010444479063e+00
1.871683089906582609e+00
1.812151569523848593e+00
1.783833873341791332e+00
1.796383761422475800e+00
1.825666833610739559e+00
1.858811409823829308e+00
1.904827666119672358e+00
1.944408082374138758e+00
1.982701330620329827e+00
2.031291922932723537e+00
2.106591251416830346e+00
2.202163476031273603e+00
2.306424084701575339e+00
2.400387349305674434e+00
2.465711125725647435e+00
2.494350613909773529e+00
2.503682581969769672e+00
2.514623510040109977e+00
2.541654038213891909e+00
2.578981910453876480e+00
2.623389206739375368e+00
2.670692631043493748e+00
2.704802583262789994e+00
2.724431895388988778e+00
2.726040855399332941e+00
2.715743511333130300e+00
2.693539863190380856e+00
2.649776150909019634e+00
2.580590870464220643e+00
2.487271189864259213e+00
2.382366997189819813e+00
2.284864020562963560e+00
2.204737812047824264e+00
2.146815251675434411e+00
2.114314259466482326e+00
2.112061715452000499e+00
2.130403859569923952e+00
2.156469011737499386e+00
2.191866131965070963e+00
2.243674644298152998e+00
2.306102292699506506e+00
2.351153172989143059e+00
2.358876181038795039e+00
2.308998420718125999e+00
2.210851860087132081e+00
2.081813267257530242e+00
1.924456978245871142e+00
1.750689297128701583e+00
1.584966416063252836e+00
1.438872847124002874e+00
1.345553166524041444e+00
1.326889230404049158e+00
1.388995086803333834e+00
1.535732239746721461e+00
1.748114961112150922e+00
2.009410066792042926e+00
2.302562580676749349e+00
2.602472726604901254e+00
2.874386968353064731e+00
3.087413273722631857e+00
3.235115802672225982e+00
3.322321435232879594e+00
3.354822427441831678e+00
3.337445659330114722e+00
3.271800090908072889e+00
3.167861274239839986e+00
3.024985625321278349e+00
2.850252568197902292e+00
2.668440087029011920e+00
2.510762006015283987e+00
2.402639893320156261e+00
2.362737685063621029e+00
2.403283477324293926e+00
2.512692758027696982e+00
2.653637654933845624e+00
2.779136535740690306e+00
2.863124248280655593e+00
2.902382872533053160e+00
2.904635416547534987e+00
2.873743384348927066e+00
2.820969496009638533e+00
2.755002135585527867e+00
2.683242519124178216e+00
2.604725270619383082e+00
2.506256917986320332e+00
2.391055381245678291e+00
2.268774420459521934e+00
2.146815251675434411e+00
2.019385618856176734e+00
1.895173906057607383e+00
1.793165841401787475e+00
1.738139409048017114e+00
1.743931665085256100e+00
1.787695377366617322e+00
1.863638289854861796e+00
2.004583186761010438e+00
2.216000532120233402e+00
2.468285461742198095e+00
2.717352471343474463e+00
2.930378776713041589e+00
3.093205529759870842e+00
3.192961050401208922e+00
3.217095450556371361e+00
3.169148442248115316e+00
3.056199449521955103e+00
2.888867608446162194e+00
2.683564311126247048e+00
2.467963669740129262e+00
2.274566676496760920e+00
2.104016915400279686e+00
1.965324562508612871e+00
1.861385745840379968e+00
1.785764625354204327e+00
1.759055889182491228e+00
1.816334865550743416e+00
1.955349010444479063e+00
2.161939475772669539e+00
2.418729493423597887e+00
2.697079575213138014e+00
2.960949016909580678e+00
3.179445786314317957e+00
3.334227739309426397e+00
3.416606491839047521e+00
3.432374299940420315e+00
3.397620763716986403e+00
3.321677851228741929e+00
3.209694234508788213e+00
3.064887833577813581e+00
2.894981656485470012e+00
2.701584663242101669e+00
2.492741653899429366e+00
2.271992340480210260e+00
2.057035283098230138e+00
1.892921362043125555e+00
1.813760529534192756e+00
1.834677009668666869e+00
1.923813394241733477e+00
2.059609619114780799e+00
2.226297876186436042e+00
2.394916885270504281e+00
2.549377046263543889e+00
2.688712983159348369e+00
2.800696599879302084e+00
2.875030552357202396e+00
2.910427672584773973e+00
2.900130328518571332e+00
2.848643608187558129e+00
2.767230231664143503e+00
2.647201814892468974e+00
2.494028821907704696e+00
2.324766228819498792e+00
2.189613587950589135e+00
2.128794899559579790e+00
2.142631955648539588e+00
2.207633940066443756e+00
2.308998420718125999e+00
2.435784469533246011e+00
2.578338326449738815e+00
2.717996055347612128e+00
2.835128344100667164e+00
2.934240280737867579e+00
3.024663833319209516e+00
3.106720793846761808e+00
3.163034394208807498e+00
3.184594458347419277e+00
3.170435610256390646e+00
3.124741145962616429e+00
3.043327769439201802e+00
2.929735192708903924e+00
2.788468503800686449e+00
2.622102038731100038e+00
2.467641877738060430e+00
2.345360916951904073e+00
2.259120660397456959e+00
2.209886484080925584e+00
2.198301972006447613e+00
2.210208276082994416e+00
2.234664468240225688e+00
2.270383380469866097e+00
2.304171540687093511e+00
2.332489236869150773e+00
2.358554389036726207e+00
2.372713237127754837e+00
2.371104277117410675e+00
2.360485141049139202e+00
2.330880276858806610e+00
2.279715348529862240e+00
2.230481172213330865e+00
2.211817236093338579e+00
2.233055508229881525e+00
2.283255060552619398e+00
2.358232597034657374e+00
2.457022741669788957e+00
2.565466646366985515e+00
2.665543959010392427e+00
2.754358551581390202e+00
2.840598808135837317e+00
2.928448024700628594e+00
3.016297241265419871e+00
3.095136281772283837e+00
3.145657626097090542e+00
3.151771674136398360e+00
3.113156633888138458e+00
3.039144473412306979e+00
2.952260632853722200e+00
2.857653784245485440e+00
2.762081559631042182e+00
2.665222167008323595e+00
2.567719190381467342e+00
2.486305813858052716e+00
2.421625621442217380e+00
2.381401621183613315e+00
2.363381269067758694e+00
2.349544212978798896e+00
2.319295764784328640e+00
2.269096212461590767e+00
2.211495444091269746e+00
2.149711379694053903e+00
2.097259283356834203e+00
2.069263379176845774e+00
2.074733843212015927e+00
2.114314259466482326e+00
2.201198100025067106e+00
2.332811028871219605e+00
2.493063445901498199e+00
2.658786326966946945e+00
2.802949143893783912e+00
2.901417496526846662e+00
2.956443928880617023e+00
2.975751449004746974e+00
2.964810520934406668e+00
2.935849240748211741e+00
2.901739288528915495e+00
2.865376792295137420e+00
2.832875800086185336e+00
2.811315735947573557e+00
2.803270935895852745e+00
2.802627351891715080e+00
2.800696599879302084e+00
2.796513303852407262e+00
2.803270935895852745e+00
2.813890071964124218e+00
2.822256664017913863e+00
2.832875800086185336e+00
2.835771928104804829e+00
2.827083544048946351e+00
2.815499031974468380e+00
2.801018391881370917e+00
2.776883991726208478e+00
2.745026583521394059e+00
2.708020503283478320e+00
2.661682454985566437e+00
2.588957462518010288e+00
2.483731477841502056e+00
2.368529941100860015e+00
2.248501524329185486e+00
2.134908947598887607e+00
2.060253203118918464e+00
2.050921235058922321e+00
2.113348883460275829e+00
2.224045332171954215e+00
2.372069653123617172e+00
2.551307798275956884e+00
2.731833111436571926e+00
2.888224024442024529e+00
3.015010073257144541e+00
3.108973337861243635e+00
3.164321562217082828e+00
3.195857178419828415e+00
3.210337818512925878e+00
3.209050650504650548e+00
3.185559834353625774e+00
3.127315481979167089e+00
3.035926553391618654e+00
2.925873688684077933e+00
2.802627351891715080e+00
2.664256791002117097e+00
2.532322070153895766e+00
2.452195861638756469e+00
2.435140885529108346e+00
2.467320085735991597e+00
2.505935125984251499e+00
2.524599062104243785e+00
2.522668310091830790e+00
2.495959573920117691e+00
2.440933141566347331e+00
2.364668437076034024e+00
2.276819220511242747e+00
2.202163476031273603e+00
2.166122771799564362e+00
2.166444563801633194e+00
2.207633940066443756e+00
2.273923092492623255e+00
2.354049301007762551e+00
2.438358805549796671e+00
2.532322070153895766e+00
2.638835222838679329e+00
2.745026583521394059e+00
2.843494936154456809e+00
2.936814616754418239e+00
3.018549785279901698e+00
3.082586393691599369e+00
3.122488601948134601e+00
3.142761498078471050e+00
3.136647450039163232e+00
3.096745241782628000e+00
3.033995801379205659e+00
2.977038617013022304e+00
2.938101784762693569e+00
2.916219928622012958e+00
2.899808536516502500e+00
2.899808536516502500e+00
2.921690392657183111e+00
2.947111960820620880e+00
2.958696472895098850e+00
2.954834968870272860e+00
2.943250456795794889e+00
2.929091608704766259e+00
2.914932760613737628e+00
2.898521368508227170e+00
2.883075352408923209e+00
2.866342168301343918e+00
2.852826904214452952e+00
2.842207768146181479e+00
2.820647704007569700e+00
2.782676247763447464e+00
2.733442071446916088e+00
2.690643735171761364e+00
2.662326038989704102e+00
2.644627478875918314e+00
2.635617302817991003e+00
2.623067414737306535e+00
2.597967638575937599e+00
2.569649942393880337e+00
2.547124502249062061e+00
2.540045078203547746e+00
2.555812886304920539e+00
2.592497174540767446e+00
2.649454358906950802e+00
2.712525591312441975e+00
2.763046935637248680e+00
2.786215959786204621e+00
2.769160983676556498e+00
2.694827031198656186e+00
2.559996182331815362e+00
2.369495317107066512e+00
2.137161491613369435e+00
1.885520145995542407e+00
1.649324816477019340e+00
1.473304591345367953e+00
1.378697742737131193e+00
1.382237454759888351e+00
1.480384015390882269e+00
1.655438864516327158e+00
1.876188177935546264e+00
2.106913043418899179e+00
2.355014677013969049e+00
2.618884118710411713e+00
2.868916504317894578e+00
3.081299225683324039e+00
3.256675866810837761e+00
3.405343771766638383e+00
3.522797852521762252e+00
3.591661340964492410e+00
3.616761117125861347e+00
3.607429149065865204e+00
3.571388444834155962e+00
3.512178716453490779e+00
3.430121755925938487e+00
3.322965019237017259e+00
3.193926426407415420e+00
3.053625113505404443e+00
2.913323800603393465e+00
2.785250583779998124e+00
2.683886103128315881e+00
2.625641750753857195e+00
2.612448278669035062e+00
2.637869846832472831e+00
2.679381015099352226e+00
2.720570391364162788e+00
2.766264855657937005e+00
2.822900248022051528e+00
2.881466392398579046e+00
2.932309528725454584e+00
2.972533528984058648e+00
2.996024345135083422e+00
3.000207641161978245e+00
2.985405209066811949e+00
2.956765720882685855e+00
2.920403224648907781e+00
2.879213848384097219e+00
2.832875800086185336e+00
2.776883991726208478e+00
2.708985879289684817e+00
2.638191638834541664e+00
2.574155030422843993e+00
2.515588886046316475e+00
2.459918869688408449e+00
2.413580821390496567e+00
2.370460693113273010e+00
2.327340564836049452e+00
2.287438356579514220e+00
2.258477076393319294e+00
2.244640020304359496e+00
2.248501524329185486e+00
2.268452628457453102e+00
2.316721428767777979e+00
2.381723413185682148e+00
2.442863893578760326e+00
2.507865877996664494e+00
2.582199830474564806e+00
2.651385110919363797e+00
2.700941079237964004e+00
2.737947159475879744e+00
2.758541847608285025e+00
2.762081559631042182e+00
2.763368727639317513e+00
2.770448151684831828e+00
2.794260759837925434e+00
2.835450136102735996e+00
2.881466392398579046e+00
2.926517272688215598e+00
2.950973464845446870e+00
2.940032536775106564e+00
2.877926680375821888e+00
2.764977687649661675e+00
2.610839318658690900e+00
2.439645973558072001e+00
2.303527956682955846e+00
2.251719444349873811e+00
2.290012692596064880e+00
2.399100181297399104e+00
2.561283350340090692e+00
2.748888087546220049e+00
2.936171032750280574e+00
3.104790041834348813e+00
3.235437594674294814e+00
3.318459931208053604e+00
3.353535259433556348e+00
3.347099419392179698e+00
3.307197211135644466e+00
3.241873434715671465e+00
3.155954970163293183e+00
3.054912281513679773e+00
2.950329880841309205e+00
2.854757656226865947e+00
2.780101911746896803e+00
2.728293399413814768e+00
2.684529687132453546e+00
2.647845398896606639e+00
2.626607126760063693e+00
2.626285334757994860e+00
2.657177366956602782e+00
2.704802583262789994e+00
2.752427799568977207e+00
2.797478679858613759e+00
2.833197592088254169e+00
2.857331992243416607e+00
2.868272920313756913e+00
2.854435864224797115e+00
2.816142615978606045e+00
2.762081559631042182e+00
2.707376919279340655e+00
2.671979799051769078e+00
2.664900375006254762e+00
2.689034775161417201e+00
2.727649815409677103e+00
2.755645719589665532e+00
2.764012311643455178e+00
2.746635543531738222e+00
2.696435991209000349e+00
2.622102038731100038e+00
2.537470742186997086e+00
2.459918869688408449e+00
2.401996309316018596e+00
2.384619541204301640e+00
2.418729493423597887e+00
2.485662229853915051e+00
2.564501270360779017e+00
2.642053142859367654e+00
2.711238423304166645e+00
2.773022487701382488e+00
2.820325912005500868e+00
2.845747480168938637e+00
2.844782104162732139e+00
2.816142615978606045e+00
2.764977687649661675e+00
2.702871831250376999e+00
2.639800598844885826e+00
2.578981910453876480e+00
2.507222293992526829e+00
2.419373077427735552e+00
2.318973972782259807e+00
2.210208276082994416e+00
2.097259283356834203e+00
1.991067922674119473e+00
1.943442706367932260e+00
1.982701330620329827e+00
2.104660499404417351e+00
2.288403732585720718e+00
2.501751829957356676e+00
2.711560215306235477e+00
2.899486744514433667e+00
3.040109849418513477e+00
3.111869465879863128e+00
3.110582297871587798e+00
3.044936729449545965e+00
2.932309528725454584e+00
2.790077463811030611e+00
2.650419734913157299e+00
2.561283350340090692e+00
2.540045078203547746e+00
2.569328150391811505e+00
2.631755798793165013e+00
2.709307671291753650e+00
2.789112087804824114e+00
2.860228120262036100e+00
2.925230104679940268e+00
2.985727001068880782e+00
3.042362393432995304e+00
3.092561945755733177e+00
3.131820570008130744e+00
3.159816474188119173e+00
3.174940698285354301e+00
3.166895898233633488e+00
3.123453977954341099e+00
3.037857305404031649e+00
2.920081432646838948e+00
2.774309655709657818e+00
2.604081686615245417e+00
2.424843541462905705e+00
2.252041236351942644e+00
2.086961939290631562e+00
1.942799122363794595e+00
1.870074129896238446e+00
1.884554769989335909e+00
1.991711506678257138e+00
2.172236819838872179e+00
2.392664341256022453e+00
2.633364758803509176e+00
2.864089624286862090e+00
3.056521241524023935e+00
3.198109722434310243e+00
3.289820443023927510e+00
3.328113691270118579e+00
3.312345883168745786e+00
3.250240026769461110e+00
3.151128090132260695e+00
3.024985625321278349e+00
2.879213848384097219e+00
2.725075479393126443e+00
2.569006358389742672e+00
2.417120533413253725e+00
2.281967892544344068e+00
2.202485268033342436e+00
2.189613587950589135e+00
2.238204180262982845e+00
2.336350740893976763e+00
2.468607253744266927e+00
2.607621398638002574e+00
2.741165079496568069e+00
2.861193496268242598e+00
2.958052888890961185e+00
3.024342041317140684e+00
3.063600665569538251e+00
3.078081305662635714e+00
3.068749337602639571e+00
3.044293145445408300e+00
3.006965273205423728e+00
2.949686296837171540e+00
2.871490840334445238e+00
2.771735319693107158e+00
2.652028694923501462e+00
2.525564438110450283e+00
2.410041109367739409e+00
2.322191892802948132e+00
2.278428180521586910e+00
2.276175636507105082e+00
2.309320212720194831e+00
2.381079829181544483e+00
2.487592981866328046e+00
2.620493078720755875e+00
2.765943063655868173e+00
2.906244376557879150e+00
3.019836953288177028e+00
3.087735065724700689e+00
3.095136281772283837e+00
3.042040601430926472e+00
2.925873688684077933e+00
2.749531671550357714e+00
2.527816982124932110e+00
2.269096212461590767e+00
1.989780754665844142e+00
1.720440848934231326e+00
1.499691535515012220e+00
1.377732366730924696e+00
1.391569422819884494e+00
1.530261775711551309e+00
1.774823697283864021e+00
2.102086163387866691e+00
2.457988117675995454e+00
2.798765847866889089e+00
3.093527321761939675e+00
3.324895771249430254e+00
3.485148188279708847e+00
3.573962780850706622e+00
3.604854813049314544e+00
3.589408796950010583e+00
3.539852828631410375e+00
3.461979164130752906e+00
3.359005723468726501e+00
3.237046554684638977e+00
3.097710617788834497e+00
2.955156760872341692e+00
2.825474584038602188e+00
2.719605015357956290e+00
2.649132566904881969e+00
2.613413654675241560e+00
2.609230358648346737e+00
2.636582678824197501e+00
2.689678359165554866e+00
2.758220055606216192e+00
2.836415512108942494e+00
2.917185304628219455e+00
2.987979545083362609e+00
3.040109849418513477e+00
3.074863385641947389e+00
3.092883737757802010e+00
3.092240153753664345e+00
3.071967257623327896e+00
3.026594585331622511e+00
2.951938840851653367e+00
2.852505112212384120e+00
2.731189527432434261e+00
2.598289430578006431e+00
2.456700949667720124e+00
2.315756052761571482e+00
2.191544339963002130e+00
2.091788819321664050e+00
2.038693138980306685e+00
2.056069907092023641e+00
2.144240915658883750e+00
2.281967892544344068e+00
2.436749845539452508e+00
2.576407574437325820e+00
2.676484887080732733e+00
2.718317847349680960e+00
2.706411543273134157e+00
2.649776150909019634e+00
2.574155030422843993e+00
2.510762006015283987e+00
2.478261013806331903e+00
2.489845525880809873e+00
2.540045078203547746e+00
2.610839318658690900e+00
2.692896279186243191e+00
2.781710871757240966e+00
2.867951128311688080e+00
2.939388952770968899e+00
2.999564057157840580e+00
3.048154649470234290e+00
3.082586393691599369e+00
3.098354201792972162e+00
3.098675993795040995e+00
3.091596569749526680e+00
3.074219801637809724e+00
3.046223897457821295e+00
3.001173017168184742e+00
2.930056984710972756e+00
2.837380888115148991e+00
2.728615191415883601e+00
2.608586774644209072e+00
2.481800725829089060e+00
2.364668437076034024e+00
2.280037140531931072e+00
2.246892564318841323e+00
2.265878292440902442e+00
2.328949524846393615e+00
2.419694869429804385e+00
2.523633686098037288e+00
2.631112214789027348e+00
2.728936983417952433e+00
2.813890071964124218e+00
2.890476568456506357e+00
2.954834968870272860e+00
3.007930649211630225e+00
3.038822681410238147e+00
3.035604761389549822e+00
2.996667929139221087e+00
2.918794264638563618e+00
2.793295383831718937e+00
2.623389206739375368e+00
2.420982037438079715e+00
2.203128852037480101e+00
2.011340818804455921e+00
1.904827666119672358e+00
1.903540498111397028e+00
1.993964050692738965e+00
2.150354963698191568e+00
2.347613460966385901e+00
2.566110230371123180e+00
2.781067287753103301e+00
2.970280984969576821e+00
3.126028313970891759e+00
3.241229850711533800e+00
3.310093339154263958e+00
3.333262363303219900e+00
3.314598427183227614e+00
3.269225754891522229e+00
3.204545562475686893e+00
3.132785946014337242e+00
3.057808409532299265e+00
2.975751449004746974e+00
2.892085528466850519e+00
2.806488855916541070e+00
2.729902359424158931e+00
2.671014423045562580e+00
2.629503254778683186e+00
2.613413654675241560e+00
2.624032790743513033e+00
2.654281238937983289e+00
2.702550039248308167e+00
2.765621271653799340e+00
2.838346264121355489e+00
2.907209752564085647e+00
2.960949016909580678e+00
2.998598681151634082e+00
3.017584409273695201e+00
3.016619033267488703e+00
2.992484633112326264e+00
2.948399128828896210e+00
2.883075352408923209e+00
2.797156887856544927e+00
2.688712983159348369e+00
2.567075606377329677e+00
2.443829269584966823e+00
2.334741780883632600e+00
2.256868116382975131e+00
2.232733716227812693e+00
2.271670548478141427e+00
2.361772309057414532e+00
2.482444309833226725e+00
2.611161110660759732e+00
2.730867735430365428e+00
2.822900248022051528e+00
2.866342168301343918e+00
2.853148696216521785e+00
2.786859543790342286e+00
2.673588759062113240e+00
2.532643862155964598e+00
2.376252949150511995e+00
2.220827412151265889e+00
2.114957843470619991e+00
2.096293907350627705e+00
2.179638035886455327e+00
2.340212244918802753e+00
2.541975830215960741e+00
2.752106007566908374e+00
2.943250456795794889e+00
3.095136281772283837e+00
3.203580186469480395e+00
3.266651418874971569e+00
3.290785819030134007e+00
3.282741018978413194e+00
3.258284826821181923e+00
3.225462042610161006e+00
3.189743130380520597e+00
3.154346010152949020e+00
3.120557849935721606e+00
3.084517145704012364e+00
3.044614937447477132e+00
2.999885849159909412e+00
2.947755544824758545e+00
2.888224024442024529e+00
2.819038743997225538e+00
2.735051031457260251e+00
2.642053142859367654e+00
2.543906582228373736e+00
2.453804821649100631e+00
2.373035029129823670e+00
2.306424084701575339e+00
2.264591124432627112e+00
2.256868116382975131e+00
2.296448532637441531e+00
2.381723413185682148e+00
2.503682581969769672e+00
2.637548054830403998e+00
2.766908439662074670e+00
2.875674136361340061e+00
2.954513176868204027e+00
2.999242265155771747e+00
3.009217817219905555e+00
2.980900121037848294e+00
2.918472472636494786e+00
2.829979672067565843e+00
2.720248599362093955e+00
2.604081686615245417e+00
2.502717205963563174e+00
2.433531925518764183e+00
2.400387349305674434e+00
2.403927061328431591e+00
2.446403605601517484e+00
2.520415766077348962e+00
2.615987990691792220e+00
2.717996055347612128e+00
2.820325912005500868e+00
2.912036632595118135e+00
2.984439833060605451e+00
3.032386841368861496e+00
3.054268697509542108e+00
3.058451993536436930e+00
3.048476441472303122e+00
3.026272793329553679e+00
2.994415385124739259e+00
2.958052888890961185e+00
2.919116056640632451e+00
2.880501016392372549e+00
2.842207768146181479e+00
2.800696599879302084e+00
2.755645719589665532e+00
2.709629463293822482e+00
2.671979799051769078e+00
2.649132566904881969e+00
2.644627478875918314e+00
2.652350486925570294e+00
2.670692631043493748e+00
2.696757783211069182e+00
2.724110103386919945e+00
2.746635543531738222e+00
2.759829015616560355e+00
2.761437975626904517e+00
2.749853463552426547e+00
2.728615191415883601e+00
2.696435991209000349e+00
2.658464534964878112e+00
2.619205910712480545e+00
2.581556246470427141e+00
2.550986006273888052e+00
2.537792534189065918e+00
2.541975830215960741e+00
2.543906582228373736e+00
2.531034902145620435e+00
2.503682581969769672e+00
2.474721301783574745e+00
2.442863893578760326e+00
2.404248853330500424e+00
2.357589013030519709e+00
2.310607380728470162e+00
2.275853844505036250e+00
2.259764244401594624e+00
2.262016788416076452e+00
2.294195988622959703e+00
2.354371093009831384e+00
2.426774293475318700e+00
2.501751829957356676e+00
2.564823062362847850e+00
2.609873942652484402e+00
2.648810774902813137e+00
2.686138647142797709e+00
2.721213975368300453e+00
2.755645719589665532e+00
2.789433879806892946e+00
2.822578456019982696e+00
2.863124248280655593e+00
2.911714840593049303e+00
2.964166936930269003e+00
3.012113945238525048e+00
3.053303321503335610e+00
3.075506969646085054e+00
3.079046681668842211e+00
3.064566041575744748e+00
3.040109849418513477e+00
3.010183193226112053e+00
2.981221913039917126e+00
2.959340056899236515e+00
2.943894040799932554e+00
2.929091608704766259e+00
2.913002008601324633e+00
2.891763736464781687e+00
2.864411416288930923e+00
2.827727128053084016e+00
2.781710871757240966e+00
2.727328023407608271e+00
2.668761879031080753e+00
2.610517526656622067e+00
2.557743638317333534e+00
2.515267094044247642e+00
2.492741653899429366e+00
2.498533909936668351e+00
2.533931030164239928e+00
2.594106134551111609e+00
2.660073494975222275e+00
2.720570391364162788e+00
2.773022487701382488e+00
2.813568279962055385e+00
2.839633432129630819e+00
2.856044824235141277e+00
2.865376792295137420e+00
2.867951128311688080e+00
2.860549912264104933e+00
2.843816728156525642e+00
2.820647704007569700e+00
2.792330007825512439e+00
2.760472599620698020e+00
2.727328023407608271e+00
2.691609111177967861e+00
2.652028694923501462e+00
2.607943190640071407e+00
2.556134678306989372e+00
2.499821077944943681e+00
2.439324181556003168e+00
2.381723413185682148e+00
2.329593108850531280e+00
2.279071764525724575e+00
2.235629844246432185e+00
2.206668564060237259e+00
2.195405843987828121e+00
2.210530068085063249e+00
2.240778516279533505e+00
2.279071764525724575e+00
2.327984148840187117e+00
2.393951509264297783e+00
2.472790549771161750e+00
2.559996182331815362e+00
2.644627478875918314e+00
2.723144727380713448e+00
2.798444055864820257e+00
2.863767832284793258e+00
2.913967384607531130e+00
2.946146584814414382e+00
2.964810520934406668e+00
2.973177112988196313e+00
2.968993816961301491e+00
2.954191384866135195e+00
2.927482648694422096e+00
2.890154776454437524e+00
2.855401240231003612e+00
2.830623256071703508e+00
2.817107991984812543e+00
2.812602903955848888e+00
2.812924695957917720e+00
2.816464407980674878e+00
2.823222040024120361e+00
2.829014296061359346e+00
2.829979672067565843e+00
2.825152792036533356e+00
2.818395159993087873e+00
2.807132439920678735e+00
2.792330007825512439e+00
2.773344279703451321e+00
2.752106007566908374e+00
2.729580567422090098e+00
2.708342295285547152e+00
2.689356567163486034e+00
2.671658007049700245e+00
2.658142742962809280e+00
2.648810774902813137e+00
2.644949270877987146e+00
2.647523606894537807e+00
2.651706902921432629e+00
2.658786326966946945e+00
2.666187543014530092e+00
2.675519511074526235e+00
2.684851479134522378e+00
2.694827031198656186e+00
2.707055127277271822e+00
2.721535767370369285e+00
2.735694615461397916e+00
2.746313751529669389e+00
2.753393175575183704e+00
2.755323927587596700e+00
2.753714967577252537e+00
2.749209879548288882e+00
2.741165079496568069e+00
2.731511319434503093e+00
2.721213975368300453e+00
2.710273047297960147e+00
2.695470615202793851e+00
2.678415639093145728e+00
2.659751702973153442e+00
2.641409558855229989e+00
2.625641750753857195e+00
2.614700822683516890e+00
2.607621398638002574e+00
2.602150934602832422e+00
2.593462550546973944e+00
2.578338326449738815e+00
2.558387222321471199e+00
2.536505366180790588e+00
2.511083798017352819e+00
2.484053269843570888e+00
2.454448405653238297e+00
2.425165333464974537e+00
2.394916885270504281e+00
2.368208149098791182e+00
2.355014677013969049e+00
2.365633813082240522e+00
2.394273301266366616e+00
2.429348629491869360e+00
2.464745749719440937e+00
2.499821077944943681e+00
2.526208022114587948e+00
2.543584790226304904e+00
2.555169302300782874e+00
2.562248726346297190e+00
2.563535894354572520e+00
2.562570518348366022e+00
2.556456470309058204e+00
2.547124502249062061e+00
2.540688662207685411e+00
2.539079702197341248e+00
2.548733462259406224e+00
2.569971734395949170e+00
2.600863766594557092e+00
2.635617302817991003e+00
2.670370839041424915e+00
2.701584663242101669e+00
2.729902359424158931e+00
2.755002135585527867e+00
2.769804567680694163e+00
2.777527575730346143e+00
2.777849367732414976e+00
2.773344279703451321e+00
2.765943063655868173e+00
2.754358551581390202e+00
2.738912535482086241e+00
2.725075479393126443e+00
2.712203799310373142e+00
2.703515415254514664e+00
2.694827031198656186e+00
2.688391191157279536e+00
2.682920727122109383e+00
2.679702807101421058e+00
2.680346391105558723e+00
2.686782231146935374e+00
2.697401367215206847e+00
2.711238423304166645e+00
2.723788311384851113e+00
2.734085655451053753e+00
2.741486871498636901e+00
2.744704791519325227e+00
2.747279127535875887e+00
2.746313751529669389e+00
2.743739415513118729e+00
2.738590743480017409e+00
2.733120279444847256e+00
2.724753687391057611e+00
2.716387095337267965e+00
2.706411543273134157e+00
2.696114199206931517e+00
2.683564311126247048e+00
2.674232343066250905e+00
2.663613206997979432e+00
2.654281238937983289e+00
2.647201814892468974e+00
2.640765974851092324e+00
2.634330134809715673e+00
2.629181462776614353e+00
2.626607126760063693e+00
2.624032790743513033e+00
2.621458454726962373e+00
2.617596950702136382e+00
2.611804694664897397e+00
2.605690646625589579e+00
2.599898390588350594e+00
2.594106134551111609e+00
2.588635670515941456e+00
2.585095958493184298e+00
2.582843414478702471e+00
2.581878038472495973e+00
2.579303702455945313e+00
2.574798614426981658e+00
2.567719190381467342e+00
2.560317974333884194e+00
2.551951382280094549e+00
2.544550166232511401e+00
2.540688662207685411e+00
2.540688662207685411e+00
2.546802710246993229e+00
2.556456470309058204e+00
2.565466646366985515e+00
2.573511446418706328e+00
2.578016534447669983e+00
2.576729366439394653e+00
2.572224278410430998e+00
2.564501270360779017e+00
2.555491094302851707e+00
2.546480918244924396e+00
2.540366870205616578e+00
2.538114326191134751e+00
2.541975830215960741e+00
2.550020630267681554e+00
2.560317974333884194e+00
2.569971734395949170e+00
2.578016534447669983e+00
2.584130582486977801e+00
2.589279254520079121e+00
2.593784342549042776e+00
2.596036886563524604e+00
2.597324054571799934e+00
2.597324054571799934e+00
2.597645846573868766e+00
2.597002262569731101e+00
2.597002262569731101e+00
2.595071510557318106e+00
2.594427926553180441e+00
2.593140758544905111e+00
2.591531798534560949e+00
2.590244630526285619e+00
2.588957462518010288e+00
2.587026710505597293e+00
2.585095958493184298e+00
2.582843414478702471e+00
2.581234454468358308e+00
2.581234454468358308e+00
2.580590870464220643e+00
2.580912662466289476e+00
2.578660118451807648e+00
2.576085782435256988e+00
2.576085782435256988e+00
2.576729366439394653e+00
2.578660118451807648e+00
2.579625494458014145e+00
2.579947286460082978e+00
2.579625494458014145e+00
2.579303702455945313e+00
2.579303702455945313e+00
2.578338326449738815e+00
2.576085782435256988e+00
2.574476822424912825e+00
2.572546070412499830e+00
2.571580694406293333e+00
2.571902486408362165e+00
2.571902486408362165e+00
2.570293526398018003e+00
2.568684566387673840e+00
2.569328150391811505e+00
2.568684566387673840e+00
2.568040982383536175e+00
2.566110230371123180e+00
2.563857686356641352e+00
2.564179478358710185e+00
2.567075606377329677e+00
2.572867862414568663e+00
2.579947286460082978e+00
2.587992086511803791e+00
2.595393302559386939e+00
2.603116310609038919e+00
2.608908566646277905e+00
2.612126486666966230e+00
2.615987990691792220e+00
2.621458454726962373e+00
2.626607126760063693e+00
2.632077590795233846e+00
2.635295510815922171e+00
2.634973718813853338e+00
2.628216086770407856e+00
2.613413654675241560e+00
2.596358678565593436e+00
2.583808790484908968e+00
2.577694742445601150e+00
2.578981910453876480e+00
2.586704918503528461e+00
2.595715094561455771e+00
2.605047062621451914e+00
2.612448278669035062e+00
2.615344406687654555e+00
2.614379030681448057e+00
2.612770070671103895e+00
2.611482902662828565e+00
2.610195734654553235e+00
2.608908566646277905e+00
2.612126486666966230e+00
2.618562326708342880e+00
2.627894294768339023e+00
2.636904470826266333e+00
2.643340310867642984e+00
2.647845398896606639e+00
2.651706902921432629e+00
2.656533782952465117e+00
2.662969622993841767e+00
2.669405463035218418e+00
2.676163095078663900e+00
2.681955351115902886e+00
2.688069399155210704e+00
2.695792407204862684e+00
2.704480791260721162e+00
2.712847383314510807e+00
2.717352471343474463e+00
2.720892183366231620e+00
2.720892183366231620e+00
2.717352471343474463e+00
2.708985879289684817e+00
2.697079575213138014e+00
2.686782231146935374e+00
2.677772055089008063e+00
2.673588759062113240e+00
2.674554135068319738e+00
2.677450263086939231e+00
2.681955351115902886e+00
2.686138647142797709e+00
2.690643735171761364e+00
2.692252695182105526e+00
2.692574487184174359e+00
2.688391191157279536e+00
2.682598935120040551e+00
2.675519511074526235e+00
2.672623383055906743e+00
2.672945175057975575e+00
2.673588759062113240e+00
2.674875927070388570e+00
2.677128471084870398e+00
2.678737431095214561e+00
2.681311767111765221e+00
2.683886103128315881e+00
2.688069399155210704e+00
2.692252695182105526e+00
2.696114199206931517e+00
2.698044951219344512e+00
2.699332119227619842e+00
2.701906455244170502e+00
2.706089751271065325e+00
2.708985879289684817e+00
2.711560215306235477e+00
2.712525591312441975e+00
2.713490967318648472e+00
2.712525591312441975e+00
2.710273047297960147e+00
2.706089751271065325e+00
2.703193623252445832e+00
2.700297495233826339e+00
2.698366743221413344e+00
2.698044951219344512e+00
2.699975703231757507e+00
2.700619287235895172e+00
2.700619287235895172e+00
2.701262871240032837e+00
2.702871831250376999e+00
2.702550039248308167e+00
2.704158999258652329e+00
2.705446167266927660e+00
2.707055127277271822e+00
2.708664087287615985e+00
2.707698711281409487e+00
2.706411543273134157e+00
2.706411543273134157e+00
2.706089751271065325e+00
2.705767959268996492e+00
2.705124375264858827e+00
2.705767959268996492e+00
2.707376919279340655e+00
2.710916631302097812e+00
2.716065303335199133e+00
2.718317847349680960e+00
2.718961431353818625e+00
2.718639639351749793e+00
2.715743511333130300e+00
2.709307671291753650e+00
2.704158999258652329e+00
2.699653911229688674e+00
2.701906455244170502e+00
2.708664087287615985e+00
2.719926807360025123e+00
2.732154903438640758e+00
2.744704791519325227e+00
2.756611095595872030e+00
2.766586647660005838e+00
2.775275031715864316e+00
2.782676247763447464e+00
2.790399255813099444e+00
2.794260759837925434e+00
2.796191511850338429e+00
2.794904343842063099e+00
2.792008215823443606e+00
2.788468503800686449e+00
2.788146711798617616e+00
2.790721047815168276e+00
2.792008215823443606e+00
2.792973591829650104e+00
2.793938967835856602e+00
2.793617175833787769e+00
2.792973591829650104e+00
2.794904343842063099e+00
2.797478679858613759e+00
2.800374807877233252e+00
2.801983767887577415e+00
2.802949143893783912e+00
2.803914519899990410e+00
2.804558103904128075e+00
2.805523479910334572e+00
2.803270935895852745e+00
2.796191511850338429e+00
2.787503127794479951e+00
2.776562199724139646e+00
2.763368727639317513e+00
2.751462423562770709e+00
2.745026583521394059e+00
2.741165079496568069e+00
2.742130455502774566e+00
2.749209879548288882e+00
2.759185431612422690e+00
2.772057111695175990e+00
2.785894167784135789e+00
2.797800471860682592e+00
2.806488855916541070e+00
2.812924695957917720e+00
2.816464407980674878e+00
2.818395159993087873e+00
2.819682328001363203e+00
2.820325912005500868e+00
2.822256664017913863e+00
2.823543832026189193e+00
2.823865624028258026e+00
2.823222040024120361e+00
2.823543832026189193e+00
2.821934872015845031e+00
2.819682328001363203e+00
2.818073367991019040e+00
2.816786199982743710e+00
2.817107991984812543e+00
2.816464407980674878e+00
2.815820823976537213e+00
2.814211863966193050e+00
2.814855447970330715e+00
2.813568279962055385e+00
2.813568279962055385e+00
2.814211863966193050e+00
2.815499031974468380e+00
2.815820823976537213e+00
2.815820823976537213e+00
2.815499031974468380e+00
2.815177239972399548e+00
2.815499031974468380e+00
2.817751575988950208e+00
2.820647704007569700e+00
2.825474584038602188e+00
2.829657880065497011e+00
2.832875800086185336e+00
2.834806552098598331e+00
2.835771928104804829e+00
2.834484760096529499e+00
2.832232216082047671e+00
2.830945048073772341e+00
2.829657880065497011e+00
2.829014296061359346e+00
2.830623256071703508e+00
2.830301464069634676e+00
2.826118168042739853e+00
2.820647704007569700e+00
2.815820823976537213e+00
2.812602903955848888e+00
2.809706775937229395e+00
2.808419607928954065e+00
2.808097815926885232e+00
2.810028567939298227e+00
2.814533655968261883e+00
2.820647704007569700e+00
2.828692504059290513e+00
2.834162968094460666e+00
2.838989848125493154e+00
2.842207768146181479e+00
2.845103896164800972e+00
2.846391064173076302e+00
2.846712856175145134e+00
2.848321816185489297e+00
2.849930776195833459e+00
2.852183320210315287e+00
2.854435864224797115e+00
2.854435864224797115e+00
2.851861528208246455e+00
2.850252568197902292e+00
2.847034648177213967e+00
2.844460312160663307e+00
2.840598808135837317e+00
2.835771928104804829e+00
2.833841176092391834e+00
2.831588632077910006e+00
2.830301464069634676e+00
2.830301464069634676e+00
2.830301464069634676e+00
2.828048920055152848e+00
2.824509208032395691e+00
2.823543832026189193e+00
2.827083544048946351e+00
2.834484760096529499e+00
2.841564184142043814e+00
2.845103896164800972e+00
2.844138520158594474e+00
2.839955224131699651e+00
2.838024472119286656e+00
2.841242392139974982e+00
2.847356440179282799e+00
2.856044824235141277e+00
2.863767832284793258e+00
2.868594712315825745e+00
2.868272920313756913e+00
2.864411416288930923e+00
2.857653784245485440e+00
2.847356440179282799e+00
2.834484760096529499e+00
2.819038743997225538e+00
2.802305559889646247e+00
2.785250583779998124e+00
2.770126359682762995e+00
2.759507223614491522e+00
2.752106007566908374e+00
2.745991959527600557e+00
2.743095831508981064e+00
2.740199703490361571e+00
2.738912535482086241e+00
2.737947159475879744e+00
2.738268951477948576e+00
2.736659991467604414e+00
2.735051031457260251e+00
2.734407447453122586e+00
2.733763863448984921e+00
2.732476695440709591e+00
2.730867735430365428e+00
2.728615191415883601e+00
2.727971607411745936e+00
2.727328023407608271e+00
2.727328023407608271e+00
2.726684439403470606e+00
2.725397271395195276e+00
2.722822935378644615e+00
2.721535767370369285e+00
2.720248599362093955e+00
2.717674263345543295e+00
2.716065303335199133e+00
2.713812759320717305e+00
2.709629463293822482e+00
2.703515415254514664e+00
2.695792407204862684e+00
2.690643735171761364e+00
2.687747607153141871e+00
2.688391191157279536e+00
2.692252695182105526e+00
2.697401367215206847e+00
2.702550039248308167e+00
2.705767959268996492e+00
2.708664087287615985e+00
2.708342295285547152e+00
2.703837207256583497e+00
2.694827031198656186e+00
2.684207895130384713e+00
2.671979799051769078e+00
2.662004246987635270e+00
2.657499158958671615e+00
2.656855574954533949e+00
2.656855574954533949e+00
2.658786326966946945e+00
2.661682454985566437e+00
2.667474711022805423e+00
2.672301591053837910e+00
2.677128471084870398e+00
2.679381015099352226e+00
2.678737431095214561e+00
2.675841303076595068e+00
2.672301591053837910e+00
2.668118295026943088e+00
2.665865751012461260e+00
2.664578583004185930e+00
2.662969622993841767e+00
2.661360662983497605e+00
2.659429910971084610e+00
2.653959446935914457e+00
2.647523606894537807e+00
2.643340310867642984e+00
2.642374934861436486e+00
2.647845398896606639e+00
2.658786326966946945e+00
2.667796503024874255e+00
2.675841303076595068e+00
2.681633559113834053e+00
2.684207895130384713e+00
2.683886103128315881e+00
2.682920727122109383e+00
2.680346391105558723e+00
2.680024599103489891e+00
2.682598935120040551e+00
2.689034775161417201e+00
2.693218071188312024e+00
2.697079575213138014e+00
2.699653911229688674e+00
2.700941079237964004e+00
2.700297495233826339e+00
2.699975703231757507e+00
2.699975703231757507e+00
2.698366743221413344e+00
2.696757783211069182e+00
2.695148823200725019e+00
2.692896279186243191e+00
2.692252695182105526e+00
2.690321943169692531e+00
2.688069399155210704e+00
2.684529687132453546e+00
2.680668183107627556e+00
2.676484887080732733e+00
2.671336215047631413e+00
2.666187543014530092e+00
2.661038870981428772e+00
2.655890198948327452e+00
2.651385110919363797e+00
2.648810774902813137e+00
2.647845398896606639e+00
2.648810774902813137e+00
2.651063318917294964e+00
2.654924822942120954e+00
2.659429910971084610e+00
2.662004246987635270e+00
2.664256791002117097e+00
2.666509335016598925e+00
2.667474711022805423e+00
2.668440087029011920e+00
2.669083671033149585e+00
2.669727255037287250e+00
2.670370839041424915e+00
2.670692631043493748e+00
2.671658007049700245e+00
2.671979799051769078e+00
2.672945175057975575e+00
2.673910551064182073e+00
2.675197719072457403e+00
2.676806679082801566e+00
2.676484887080732733e+00
2.677128471084870398e+00
2.674232343066250905e+00
2.667474711022805423e+00
2.658786326966946945e+00
2.651706902921432629e+00
2.646236438886262476e+00
2.643340310867642984e+00
2.646236438886262476e+00
2.651385110919363797e+00
2.658786326966946945e+00
2.662969622993841767e+00
2.664578583004185930e+00
2.663291414995910600e+00
2.658786326966946945e+00
2.651706902921432629e+00
2.642696726863505319e+00
2.636904470826266333e+00
2.636582678824197501e+00
2.640444182849023491e+00
2.644949270877987146e+00
2.647523606894537807e+00
2.645914646884193644e+00
2.641087766853161156e+00
2.637226262828335166e+00
2.635939094820059836e+00
2.639157014840748161e+00
2.644949270877987146e+00
2.651385110919363797e+00
2.657499158958671615e+00
2.662647830991772935e+00
2.668761879031080753e+00
2.675519511074526235e+00
2.682277143117971718e+00
2.688069399155210704e+00
2.692896279186243191e+00
2.696435991209000349e+00
2.698366743221413344e+00
2.699653911229688674e+00
2.700619287235895172e+00
2.699332119227619842e+00
2.698366743221413344e+00
2.694827031198656186e+00
2.691609111177967861e+00
2.688069399155210704e+00
2.682920727122109383e+00
2.679381015099352226e+00
2.678093847091076896e+00
2.676484887080732733e+00
2.676163095078663900e+00
2.677772055089008063e+00
2.679059223097283393e+00
2.679702807101421058e+00
2.680024599103489891e+00
2.679381015099352226e+00
2.680668183107627556e+00
2.680346391105558723e+00
2.680989975109696388e+00
2.678415639093145728e+00
2.672945175057975575e+00
2.668118295026943088e+00
2.663934999000048265e+00
2.662004246987635270e+00
2.660717078979359940e+00
2.661038870981428772e+00
2.664256791002117097e+00
2.668761879031080753e+00
2.673588759062113240e+00
2.676806679082801566e+00
2.678093847091076896e+00
2.678737431095214561e+00
2.678093847091076896e+00
2.678737431095214561e+00
2.678093847091076896e+00
2.677450263086939231e+00
2.675519511074526235e+00
2.674875927070388570e+00
2.674232343066250905e+00
2.673588759062113240e+00
2.673588759062113240e+00
2.673588759062113240e+00
2.672945175057975575e+00
2.671336215047631413e+00
2.670692631043493748e+00
2.669405463035218418e+00
2.667474711022805423e+00
2.665222167008323595e+00
2.663291414995910600e+00
2.663613206997979432e+00
2.663934999000048265e+00
2.665543959010392427e+00
2.668761879031080753e+00
2.671336215047631413e+00
2.671979799051769078e+00
2.671014423045562580e+00
2.668440087029011920e+00
2.665222167008323595e+00
2.661038870981428772e+00
2.657177366956602782e+00
2.653315862931776792e+00
2.649454358906950802e+00
2.649132566904881969e+00
2.649776150909019634e+00
2.648810774902813137e+00
2.645914646884193644e+00
2.641409558855229989e+00
2.635617302817991003e+00
2.631434006791096181e+00
2.630146838782820851e+00
2.633042966801440343e+00
2.637869846832472831e+00
2.644627478875918314e+00
2.647523606894537807e+00
2.652672278927639127e+00
2.657820950960740447e+00
2.665865751012461260e+00
2.674554135068319738e+00
2.682920727122109383e+00
2.689356567163486034e+00
2.694183447194518521e+00
2.696757783211069182e+00
2.696757783211069182e+00
2.695470615202793851e+00
2.693218071188312024e+00
2.691287319175899029e+00
2.690000151167623699e+00
2.689356567163486034e+00
2.688712983159348369e+00
2.686782231146935374e+00
2.683886103128315881e+00
2.680989975109696388e+00
2.676163095078663900e+00
2.669083671033149585e+00
2.663613206997979432e+00
2.655890198948327452e+00
2.648488982900744304e+00
2.640765974851092324e+00
2.634973718813853338e+00
2.632399382797302678e+00
2.633686550805578008e+00
2.638191638834541664e+00
2.643662102869711816e+00
2.645914646884193644e+00
2.645914646884193644e+00
2.645592854882124811e+00
2.646558230888331309e+00
2.647523606894537807e+00
2.651385110919363797e+00
2.658464534964878112e+00
2.666509335016598925e+00
2.673910551064182073e+00
2.679381015099352226e+00
2.681955351115902886e+00
2.682920727122109383e+00
2.680668183107627556e+00
2.678093847091076896e+00
2.675841303076595068e+00
2.674232343066250905e+00
2.674232343066250905e+00
2.673588759062113240e+00
2.671658007049700245e+00
2.667474711022805423e+00
2.662004246987635270e+00
2.657820950960740447e+00
2.655246614944189787e+00
2.653315862931776792e+00
2.654603030940052122e+00
2.655568406946258619e+00
2.655568406946258619e+00
2.654924822942120954e+00
2.654281238937983289e+00
2.653637654933845624e+00
2.652994070929707959e+00
2.654281238937983289e+00
2.656533782952465117e+00
2.657820950960740447e+00
2.659751702973153442e+00
2.661682454985566437e+00
2.662969622993841767e+00
2.664900375006254762e+00
2.667152919020736590e+00
2.669405463035218418e+00
2.672623383055906743e+00
2.675519511074526235e+00
2.678415639093145728e+00
2.680346391105558723e+00
2.680024599103489891e+00
2.679381015099352226e+00
2.679702807101421058e+00
2.680024599103489891e+00
2.680024599103489891e+00
2.679381015099352226e+00
2.676484887080732733e+00
2.671979799051769078e+00
2.667796503024874255e+00
2.665865751012461260e+00
2.664256791002117097e+00
2.665222167008323595e+00
2.666831127018667758e+00
2.670370839041424915e+00
2.670692631043493748e+00
2.669727255037287250e+00
2.670049047039356083e+00
2.668761879031080753e+00
2.667796503024874255e+00
2.668761879031080753e+00
2.669405463035218418e+00
2.668118295026943088e+00
2.666509335016598925e+00
2.664578583004185930e+00
2.662969622993841767e+00
2.662326038989704102e+00
2.661360662983497605e+00
2.659108118969015777e+00
2.658464534964878112e+00
2.656533782952465117e+00
2.656533782952465117e+00
2.657499158958671615e+00
2.660717078979359940e+00
2.662647830991772935e+00
2.663934999000048265e+00
2.663934999000048265e+00
2.663613206997979432e+00
2.662969622993841767e+00
2.662326038989704102e+00
2.663291414995910600e+00
2.663934999000048265e+00
2.664900375006254762e+00
2.668118295026943088e+00
2.672301591053837910e+00
2.675519511074526235e+00
2.678737431095214561e+00
2.680668183107627556e+00
2.682598935120040551e+00
2.684207895130384713e+00
2.687425815151073039e+00
2.690965527173830196e+00
2.697079575213138014e+00
2.705124375264858827e+00
2.717030679341405630e+00
2.728615191415883601e+00
2.739556119486223906e+00
2.745991959527600557e+00
2.747922711540013552e+00
2.749209879548288882e+00
2.749853463552426547e+00
2.752749591571046039e+00
2.757254679600009695e+00
2.763690519641386345e+00
2.766586647660005838e+00
2.766908439662074670e+00
2.764977687649661675e+00
2.762403351633111015e+00
2.758541847608285025e+00
2.753071383573114872e+00
2.748566295544151217e+00
2.744382999517256394e+00
2.743739415513118729e+00
2.743417623511049896e+00
2.745026583521394059e+00
2.745348375523462892e+00
2.746313751529669389e+00
2.746313751529669389e+00
2.745026583521394059e+00
2.743739415513118729e+00
2.742774039506912231e+00
2.743095831508981064e+00
2.741486871498636901e+00
2.740521495492430404e+00
2.739556119486223906e+00
2.737625367473810911e+00
2.734407447453122586e+00
2.729580567422090098e+00
2.723788311384851113e+00
2.719605015357956290e+00
2.717030679341405630e+00
2.718961431353818625e+00
2.723144727380713448e+00
2.729580567422090098e+00
2.736659991467604414e+00
2.742130455502774566e+00
2.747600919537944719e+00
2.749853463552426547e+00
2.751140631560701877e+00
2.751784215564839542e+00
2.752427799568977207e+00
2.752427799568977207e+00
2.751462423562770709e+00
2.748244503542082384e+00
2.743739415513118729e+00
2.738912535482086241e+00
2.734407447453122586e+00
2.732154903438640758e+00
2.730224151426227763e+00
2.727328023407608271e+00
2.725075479393126443e+00
2.723466519382782280e+00
2.723466519382782280e+00
2.724431895388988778e+00
2.726684439403470606e+00
2.729580567422090098e+00
2.734085655451053753e+00
2.737947159475879744e+00
2.740521495492430404e+00
2.741808663500705734e+00
2.741486871498636901e+00
2.740199703490361571e+00
2.739877911488292739e+00
2.739556119486223906e+00
2.738912535482086241e+00
2.738912535482086241e+00
2.739556119486223906e+00
2.741486871498636901e+00
2.742452247504843399e+00
2.741808663500705734e+00
2.740199703490361571e+00
2.737947159475879744e+00
2.736016407463466749e+00
2.733442071446916088e+00
2.732154903438640758e+00
2.730224151426227763e+00
2.727328023407608271e+00
2.723466519382782280e+00
2.720570391364162788e+00
2.720248599362093955e+00
2.721213975368300453e+00
2.721213975368300453e+00
2.722501143376575783e+00
2.723788311384851113e+00
2.723466519382782280e+00
2.724110103386919945e+00
2.722501143376575783e+00
2.721213975368300453e+00
2.718961431353818625e+00
2.717674263345543295e+00
2.714778135326923802e+00
2.713490967318648472e+00
2.712203799310373142e+00
2.711882007308304310e+00
2.710273047297960147e+00
2.708985879289684817e+00
2.709629463293822482e+00
2.709951255295891315e+00
2.709951255295891315e+00
2.708985879289684817e+00
2.708664087287615985e+00
2.706411543273134157e+00
2.703193623252445832e+00
2.701262871240032837e+00
2.699653911229688674e+00
2.701906455244170502e+00
2.703515415254514664e+00
2.706733335275202990e+00
2.709307671291753650e+00
2.711238423304166645e+00
2.712847383314510807e+00
2.713490967318648472e+00
2.713812759320717305e+00
2.713490967318648472e+00
2.711560215306235477e+00
2.709307671291753650e+00
2.706733335275202990e+00
2.704480791260721162e+00
2.702871831250376999e+00
2.701584663242101669e+00
2.700619287235895172e+00
2.700297495233826339e+00
2.699010327225551009e+00
2.698366743221413344e+00
2.696114199206931517e+00
2.694505239196587354e+00
2.692252695182105526e+00
2.691609111177967861e+00
2.690965527173830196e+00
2.690965527173830196e+00
2.688712983159348369e+00
2.686138647142797709e+00
2.686138647142797709e+00
2.686782231146935374e+00
2.686460439144866541e+00
2.683564311126247048e+00
2.680024599103489891e+00
2.677128471084870398e+00
2.674554135068319738e+00
2.671014423045562580e+00
2.668118295026943088e+00
2.666831127018667758e+00
2.667152919020736590e+00
2.670049047039356083e+00
2.675519511074526235e+00
2.682277143117971718e+00
2.687425815151073039e+00
2.692896279186243191e+00
2.696114199206931517e+00
2.697401367215206847e+00
2.698366743221413344e+00
2.698688535223482177e+00
2.697079575213138014e+00
2.693218071188312024e+00
2.690321943169692531e+00
2.688069399155210704e+00
2.686782231146935374e+00
2.687104023149004206e+00
2.687425815151073039e+00
2.686782231146935374e+00
2.681955351115902886e+00
2.676806679082801566e+00
2.671336215047631413e+00
2.667796503024874255e+00
2.665865751012461260e+00
2.665865751012461260e+00
2.665865751012461260e+00
2.666187543014530092e+00
2.668118295026943088e+00
2.669727255037287250e+00
2.667474711022805423e+00
2.664578583004185930e+00
2.660073494975222275e+00
2.655890198948327452e+00
2.653959446935914457e+00
2.655246614944189787e+00
2.655890198948327452e+00
2.655890198948327452e+00
2.654924822942120954e+00
2.652028694923501462e+00
2.647201814892468974e+00
2.642696726863505319e+00
2.639478806842816994e+00
2.637226262828335166e+00
2.639800598844885826e+00
2.641409558855229989e+00
2.643018518865574151e+00
2.644305686873849481e+00
2.644949270877987146e+00
2.645271062880055979e+00
2.644305686873849481e+00
2.642374934861436486e+00
2.640765974851092324e+00
2.640765974851092324e+00
2.640444182849023491e+00
2.641087766853161156e+00
2.638191638834541664e+00
2.634330134809715673e+00
2.629825046780752018e+00
2.626928918762132525e+00
2.623067414737306535e+00
2.620493078720755875e+00
2.617596950702136382e+00
2.614379030681448057e+00
2.611161110660759732e+00
2.609552150650415570e+00
2.607943190640071407e+00
2.605690646625589579e+00
2.602472726604901254e+00
2.600220182590419427e+00
2.598933014582144096e+00
2.597967638575937599e+00
2.597645846573868766e+00
2.595393302559386939e+00
2.591853590536629781e+00
2.588313878513872623e+00
2.582843414478702471e+00
2.576407574437325820e+00
2.570293526398018003e+00
2.565788438369054347e+00
2.560961558338021860e+00
2.558709014323540032e+00
2.558387222321471199e+00
2.559030806325608864e+00
2.560961558338021860e+00
2.564179478358710185e+00
2.567075606377329677e+00
2.569971734395949170e+00
2.570937110402155668e+00
2.570293526398018003e+00
2.567719190381467342e+00
2.563857686356641352e+00
2.559996182331815362e+00
2.558387222321471199e+00
2.558709014323540032e+00
2.562570518348366022e+00
2.568684566387673840e+00
2.576729366439394653e+00
2.582199830474564806e+00
2.589279254520079121e+00
2.593784342549042776e+00
2.597002262569731101e+00
2.599576598586281762e+00
2.600863766594557092e+00
2.600863766594557092e+00
2.600220182590419427e+00
2.598933014582144096e+00
2.598611222580075264e+00
2.597002262569731101e+00
2.593784342549042776e+00
2.589601046522147954e+00
2.585095958493184298e+00
2.581234454468358308e+00
2.577694742445601150e+00
2.573833238420775160e+00
2.571258902404224500e+00
2.569328150391811505e+00
2.569006358389742672e+00
2.571258902404224500e+00
2.574798614426981658e+00
2.577694742445601150e+00
2.579625494458014145e+00
2.580912662466289476e+00
2.580590870464220643e+00
2.579947286460082978e+00
2.578660118451807648e+00
2.576729366439394653e+00
2.575763990433188155e+00
2.575442198431119323e+00
2.575763990433188155e+00
2.576729366439394653e+00
2.578660118451807648e+00
2.579625494458014145e+00
2.577694742445601150e+00
2.575442198431119323e+00
2.572546070412499830e+00
2.569649942393880337e+00
2.566110230371123180e+00
2.559996182331815362e+00
2.552916758286301047e+00
2.548089878255268559e+00
2.542297622218029574e+00
2.537148950184928253e+00
2.534896406170446426e+00
2.533931030164239928e+00
2.534896406170446426e+00
2.537470742186997086e+00
2.541332246211823076e+00
2.546802710246993229e+00
2.552594966284232214e+00
2.558065430319402367e+00
2.561605142342159525e+00
2.563857686356641352e+00
2.565144854364916682e+00
2.566110230371123180e+00
2.564823062362847850e+00
2.563535894354572520e+00
2.562248726346297190e+00
2.561605142342159525e+00
2.563214102352503687e+00
2.563535894354572520e+00
2.566110230371123180e+00
2.566753814375260845e+00
2.567719190381467342e+00
2.569328150391811505e+00
2.570615318400086835e+00
2.571580694406293333e+00
2.572546070412499830e+00
2.573189654416637495e+00
2.572867862414568663e+00
2.572224278410430998e+00
2.571258902404224500e+00
2.570293526398018003e+00
2.567719190381467342e+00
2.564823062362847850e+00
2.560961558338021860e+00
2.557421846315264702e+00
2.555169302300782874e+00
2.555169302300782874e+00
2.555169302300782874e+00
2.556134678306989372e+00
2.558065430319402367e+00
2.559996182331815362e+00
2.561926934344228357e+00
2.562570518348366022e+00
2.562570518348366022e+00
2.562248726346297190e+00
2.562248726346297190e+00
2.563857686356641352e+00
2.565466646366985515e+00
2.565788438369054347e+00
2.566432022373192012e+00
2.566753814375260845e+00
2.567719190381467342e+00
2.568040982383536175e+00
2.567397398379398510e+00
2.566753814375260845e+00
2.566110230371123180e+00
2.563214102352503687e+00
2.558387222321471199e+00
2.554203926294576377e+00
2.551951382280094549e+00
2.552594966284232214e+00
2.552273174282163382e+00
2.552273174282163382e+00
2.552916758286301047e+00
2.552916758286301047e+00
2.552273174282163382e+00
2.550986006273888052e+00
2.549377046263543889e+00
2.547768086253199726e+00
2.545515542238717899e+00
2.540045078203547746e+00
2.535539990174584091e+00
2.531034902145620435e+00
2.527816982124932110e+00
2.526851606118725613e+00
2.527816982124932110e+00
2.528138774127000943e+00
2.527495190122863278e+00
2.524599062104243785e+00
2.522990102093899623e+00
2.520415766077348962e+00
2.518806806067004800e+00
2.515910678048385307e+00
2.512692758027696982e+00
2.510118422011146322e+00
2.508187669998733327e+00
2.505613333982182667e+00
2.501751829957356676e+00
2.500464661949081346e+00
2.500786453951150179e+00
2.500786453951150179e+00
2.500142869947012514e+00
2.498533909936668351e+00
2.497246741928393021e+00
2.497246741928393021e+00
2.493385237903567031e+00
2.490489109884947538e+00
2.487271189864259213e+00
2.485984021855983883e+00
2.487914773868396878e+00
2.491454485891154036e+00
2.495315989915980026e+00
2.498533909936668351e+00
2.500786453951150179e+00
2.501751829957356676e+00
2.503682581969769672e+00
2.504326165973907337e+00
2.503682581969769672e+00
2.503682581969769672e+00
2.503038997965632007e+00
2.501751829957356676e+00
2.502073621959425509e+00
2.502073621959425509e+00
2.501751829957356676e+00
2.501430037955287844e+00
2.498855701938737184e+00
2.495959573920117691e+00
2.493063445901498199e+00
2.488880149874603376e+00
2.484375061845639721e+00
2.479548181814607233e+00
2.475364885787712410e+00
2.472146965767024085e+00
2.470216213754611090e+00
2.469572629750473425e+00
2.469894421752542257e+00
2.472468757769092917e+00
2.474721301783574745e+00
2.475686677789781243e+00
2.475043093785643578e+00
2.471825173764955252e+00
2.468285461742198095e+00
2.465067541721509770e+00
2.461849621700821444e+00
2.459918869688408449e+00
2.457666325673926622e+00
2.456379157665651292e+00
2.458631701680133119e+00
2.468607253744266927e+00
2.482122517831157893e+00
2.498533909936668351e+00
2.516876054054591805e+00
2.533931030164239928e+00
2.546802710246993229e+00
2.554847510298714042e+00
2.557743638317333534e+00
2.559352598327677697e+00
2.556134678306989372e+00
2.552594966284232214e+00
2.546802710246993229e+00
2.541010454209754243e+00
2.533287446160102263e+00
2.523955478100106120e+00
2.515588886046316475e+00
2.507222293992526829e+00
2.500786453951150179e+00
2.494672405911842361e+00
2.489523733878741041e+00
2.484053269843570888e+00
2.481157141824951395e+00
2.481478933827020228e+00
2.481478933827020228e+00
2.482122517831157893e+00
2.481157141824951395e+00
2.480513557820813730e+00
2.479869973816676065e+00
2.478904597810469568e+00
2.478261013806331903e+00
2.477295637800125405e+00
2.477295637800125405e+00
2.476973845798056573e+00
2.474399509781505913e+00
2.471181589760817587e+00
2.467320085735991597e+00
2.462493205704959109e+00
2.456057365663582459e+00
2.446725397603586316e+00
2.435462677531177178e+00
2.423234581452561542e+00
2.409397525363601744e+00
2.396525845280848444e+00
2.386872085218783468e+00
2.381401621183613315e+00
2.380436245177406818e+00
2.383332373196026310e+00
2.387515669222921133e+00
2.393629717262228951e+00
2.398456597293261439e+00
2.403605269326362759e+00
2.409719317365670577e+00
2.416798741411184892e+00
2.422269205446355045e+00
2.427096085477387533e+00
2.432888341514626518e+00
2.440933141566347331e+00
2.451874069636687636e+00
2.461206037696683779e+00
2.471181589760817587e+00
2.479226389812538400e+00
2.485662229853915051e+00
2.491132693889085203e+00
2.493385237903567031e+00
2.492098069895291701e+00
2.487271189864259213e+00
2.480191765818744898e+00
2.470859797758748755e+00
2.458631701680133119e+00
2.448334357613930479e+00
2.440289557562209666e+00
2.433853717520833015e+00
2.430635797500144690e+00
2.430314005498075858e+00
2.434175509522901848e+00
2.444794645591173321e+00
2.457022741669788957e+00
2.469894421752542257e+00
2.480835349822882563e+00
2.488236565870465711e+00
2.491454485891154036e+00
2.491132693889085203e+00
2.485662229853915051e+00
2.476973845798056573e+00
2.465711125725647435e+00
2.452195861638756469e+00
2.439645973558072001e+00
2.427417877479456365e+00
2.414224405394634232e+00
2.401674517313949764e+00
2.389446421235334128e+00
2.377861909160856158e+00
2.372069653123617172e+00
2.372069653123617172e+00
2.379149077169131488e+00
2.390090005239471793e+00
2.402639893320156261e+00
2.415189781400840729e+00
2.429670421493938193e+00
2.445116437593242154e+00
2.460884245694614947e+00
2.475043093785643578e+00
2.486627605860121548e+00
2.495315989915980026e+00
2.501430037955287844e+00
2.499499285942874849e+00
2.491454485891154036e+00
2.481478933827020228e+00
2.470538005756679922e+00
2.456379157665651292e+00
2.439645973558072001e+00
2.423234581452561542e+00
2.406179605342913419e+00
2.389768213237402961e+00
2.373678613133961335e+00
2.355980053020175546e+00
2.338925076910527423e+00
2.326053396827774122e+00
2.317365012771915644e+00
2.315756052761571482e+00
2.321226516796741635e+00
2.332167444867081940e+00
2.345682708953972906e+00
2.360806933051208034e+00
2.375931157148443162e+00
2.392342549253953621e+00
2.405857813340844586e+00
2.416476949409116060e+00
2.424199957458768040e+00
2.425808917469112203e+00
2.424843541462905705e+00
2.418729493423597887e+00
2.407466773351188749e+00
2.390411797241540626e+00
2.367564565094653517e+00
2.342464788933284581e+00
2.321226516796741635e+00
2.306745876703644171e+00
2.296126740635372698e+00
2.285507604567101225e+00
2.273923092492623255e+00
2.263625748426420614e+00
2.255580948374699801e+00
2.249466900335391983e+00
2.247214356320910156e+00
2.249788692337460816e+00
2.257189908385043964e+00
2.266843668447108939e+00
2.275210260500898585e+00
2.282611476548481733e+00
2.289369108591927215e+00
2.297092116641579196e+00
2.308676628716057166e+00
2.322191892802948132e+00
2.337959700904320925e+00
2.356945429026382044e+00
2.380114453175337985e+00
2.403605269326362759e+00
2.423878165456699207e+00
2.439002389553934336e+00
2.444151061587035656e+00
2.440611349564278498e+00
2.432566549512557685e+00
2.421625621442217380e+00
2.406501397344982252e+00
2.390733589243609458e+00
2.378183701162924990e+00
2.367242773092584684e+00
2.357589013030519709e+00
2.351796756993280724e+00
2.342464788933284581e+00
2.330236692854668945e+00
2.319617556786397472e+00
2.312859924742951989e+00
2.308676628716057166e+00
2.299022868653992191e+00
2.284542228560894728e+00
2.266843668447108939e+00
2.243996436300221831e+00
2.220827412151265889e+00
2.191866131965070963e+00
2.155825427733361721e+00
2.121071891509927809e+00
2.093075987329939380e+00
2.076986387226497754e+00
2.059931411116849631e+00
2.036762386967893690e+00
2.005226770765148103e+00
1.963072018494131044e+00
1.915446802187943831e+00
1.867178001877618954e+00
1.820518161577638239e+00
1.780294161319034174e+00
1.745862417097669095e+00
1.712074256880441681e+00
1.682469392690109089e+00
1.657047824526671320e+00
1.649646608479088172e+00
1.676998928654938936e+00
1.738461201050085947e+00
1.818265617563156411e+00
1.902253330103121698e+00
1.980770578607916832e+00
2.048346899042371660e+00
2.103373331396142021e+00
2.145849875669227913e+00
2.167409939807839692e+00
2.172558611840941012e+00
2.172880403843009844e+00
2.178029075876111165e+00
2.184464915917487815e+00
2.190257171954726800e+00
2.190900755958864465e+00
2.189291795948520303e+00
2.201198100025067106e+00
2.227263252192642540e+00
2.266200084442971274e+00
2.314468884753296152e+00
2.367564565094653517e+00
2.420660245436010882e+00
2.474399509781505913e+00
2.511727382021490484e+00
2.519128598069073632e+00
2.496603157924255356e+00
2.441576725570484996e+00
2.360163349047070369e+00
2.265878292440902442e+00
2.171915027836803347e+00
2.080204307247186080e+00
1.995251218701014295e+00
1.929605650278972462e+00
1.892277778038987890e+00
1.882624017976922914e+00
1.895495698059676215e+00
1.926065938256215304e+00
1.979805202601710334e+00
2.062827539135469124e+00
2.178350867878179997e+00
2.314468884753296152e+00
2.451230485632549971e+00
2.575763990433188155e+00
2.686460439144866541e+00
2.775275031715864316e+00
2.834484760096529499e+00
2.863767832284793258e+00
2.858940952253760770e+00
2.825796376040671021e+00
2.768195607670350000e+00
2.681633559113834053e+00
2.566432022373192012e+00
2.436428053537383676e+00
2.311250964732607827e+00
2.205381396051961929e+00
2.128151315555442125e+00
2.075699219218222424e+00
2.042554643005132675e+00
2.036440594965824857e+00
2.058966035110643134e+00
2.090501651313388720e+00
2.121071891509927809e+00
2.162261267774738371e+00
2.213747988105751574e+00
2.271348756476072595e+00
2.329914900852600113e+00
2.384619541204301640e+00
2.440289557562209666e+00
2.500786453951150179e+00
2.565788438369054347e+00
2.622102038731100038e+00
2.666509335016598925e+00
2.696114199206931517e+00
2.709307671291753650e+00
2.699975703231757507e+00
2.662004246987635270e+00
2.594427926553180441e+00
2.506578709988389164e+00
2.403605269326362759e+00
2.292587028612615541e+00
2.183499539911281317e+00
2.071515923191327602e+00
1.949234962405171245e+00
1.816013073548674583e+00
1.689870608737692237e+00
1.581104912038426846e+00
1.491646735463291407e+00
1.428253711055731401e+00
1.395752718846779317e+00
1.393178382830228657e+00
1.429219087061937898e+00
1.506127375556388870e+00
1.620041744288755581e+00
1.755837969161802903e+00
1.903862290113465860e+00
2.048990483046509326e+00
2.159365139756118879e+00
2.220827412151265889e+00
2.247214356320910156e+00
2.245605396310565993e+00
2.209886484080925584e+00
2.151320339704398066e+00
2.094684947340283543e+00
2.058322451106505468e+00
2.043198227009270340e+00
2.048346899042371660e+00
2.078273555234773085e+00
2.139092243625782430e+00
2.224688916176091880e+00
2.315756052761571482e+00
2.390733589243609458e+00
2.450908693630481139e+00
2.500464661949081346e+00
2.535539990174584091e+00
2.550342422269750386e+00
2.540688662207685411e+00
2.493707029905635864e+00
2.413902613392565399e+00
2.318008596776053309e+00
2.211173652089200914e+00
2.095006739342352375e+00
1.980126994603779167e+00
1.876188177935546264e+00
1.788660753372823820e+00
1.701776912814239040e+00
1.601699600170832127e+00
1.514493967610178515e+00
1.464294415287440643e+00
1.453997071221238002e+00
1.473948175349505618e+00
1.520608015649486333e+00
1.580461328034289181e+00
1.641601808427367359e+00
1.705960208841133863e+00
1.774180113279726356e+00
1.861707537842448801e+00
1.983988498628605157e+00
2.147137043677503243e+00
2.338603284908458591e+00
2.529104150133207440e+00
2.692574487184174359e+00
2.808741399931022897e+00
2.860549912264104933e+00
2.850574360199971125e+00
2.786859543790342286e+00
2.694827031198656186e+00
2.601829142600763589e+00
2.518163222062867135e+00
2.451552277634618804e+00
2.410362901369808242e+00
2.387837461224989966e+00
2.382045205187750980e+00
2.395560469274641946e+00
2.412615445384290069e+00
2.411650069378083572e+00
2.395238677272573113e+00
2.373035029129823670e+00
2.351153172989143059e+00
2.309963796724332497e+00
2.233377300231950358e+00
2.135552531603025272e+00
2.044807187019614503e+00
1.975300114572746679e+00
1.945373458380345255e+00
1.964037394500337541e+00
2.027430418907897547e+00
2.127185939549235627e+00
2.239813140273327008e+00
2.341499412927078083e+00
2.422912789450492710e+00
2.482444309833226725e+00
2.519128598069073632e+00
2.531034902145620435e+00
2.527816982124932110e+00
2.496603157924255356e+00
2.437071637541521341e+00
2.386550293216714635e+00
2.369817109109135345e+00
2.379792661173269153e+00
2.394273301266366616e+00
2.403927061328431591e+00
2.410041109367739409e+00
2.418085909419460222e+00
2.438358805549796671e+00
2.480835349822882563e+00
2.532965654158033431e+00
2.570293526398018003e+00
2.580269078462151811e+00
2.572546070412499830e+00
2.559030806325608864e+00
2.532643862155964598e+00
2.489201941876672208e+00
2.439002389553934336e+00
2.386872085218783468e+00
2.328949524846393615e+00
2.263947540428489447e+00
2.213747988105751574e+00
2.182855955907143652e+00
2.172236819838872179e+00
2.184464915917487815e+00
2.220505620149197057e+00
2.274888468498829752e+00
2.331202068860875443e+00
2.386872085218783468e+00
2.441576725570484996e+00
2.483087893837364390e+00
2.496924949926324189e+00
2.460562453692546114e+00
2.363381269067758694e+00
2.219862036145059392e+00
2.059287827112711966e+00
1.895173906057607383e+00
1.741035537066636607e+00
1.621007120294962078e+00
1.567267855949467048e+00
1.604917520191520452e+00
1.737495825043879449e+00
1.926709522260352969e+00
2.122359059518203139e+00
2.296770324639510363e+00
2.434175509522901848e+00
2.533609238162171096e+00
2.585417750495253131e+00
2.576407574437325820e+00
2.505291541980113834e+00
2.399100181297399104e+00
2.296448532637441531e+00
2.222758164163678885e+00
2.184786707919556648e+00
2.191866131965070963e+00
2.263625748426420614e+00
2.390411797241540626e+00
2.530069526139413938e+00
2.649776150909019634e+00
2.745991959527600557e+00
2.835771928104804829e+00
2.920725016650976613e+00
2.994415385124739259e+00
3.048154649470234290e+00
3.082264601689530537e+00
3.095779865776421502e+00
3.090309401741251349e+00
3.049763609480578452e+00
2.958696472895098850e+00
2.818073367991019040e+00
2.634008342807646841e+00
2.405214229336706921e+00
2.136196115607162938e+00
1.850444817770039663e+00
1.566946063947398216e+00
1.297927950217854232e+00
1.098095116933109239e+00
1.012176652380730957e+00
1.047895564610371366e+00
1.194954509555827826e+00
1.452066319208825007e+00
1.778685201308690012e+00
2.113992467464413494e+00
2.391055381245678291e+00
2.583808790484908968e+00
2.690643735171761364e+00
2.721213975368300453e+00
2.705124375264858827e+00
2.690000151167623699e+00
2.707376919279340655e+00
2.740521495492430404e+00
2.789433879806892946e+00
2.851217944204108790e+00
2.912358424597186968e+00
2.967706648953026161e+00
3.004390937188873067e+00
3.028847129346104339e+00
3.039144473412306979e+00
3.008574233215767890e+00
2.933918488735798746e+00
2.845425688166869804e+00
2.769482775678625330e+00
2.699332119227619842e+00
2.616953366697998717e+00
2.517519638058729470e+00
2.407788565353257582e+00
2.317686804773984477e+00
2.266200084442971274e+00
2.255902740376768634e+00
2.270061588467797264e+00
2.305780500697437674e+00
2.347935252968454733e+00
2.394273301266366616e+00
2.433210133516695350e+00
2.438037013547727838e+00
2.388481045229127631e+00
2.286151188571238890e+00
2.156147219735430554e+00
2.011019026802387089e+00
1.855593489803140983e+00
1.699846160801826045e+00
1.570485775970155373e+00
1.481349391397088766e+00
1.462363663275027648e+00
1.542811663792235777e+00
1.710143504868028685e+00
1.932823570299660787e+00
2.169340691820252687e+00
2.386550293216714635e+00
2.570293526398018003e+00
2.690643735171761364e+00
2.749853463552426547e+00
2.785894167784135789e+00
2.811959319951711223e+00
2.834162968094460666e+00
2.852826904214452952e+00
2.867307544307550415e+00
2.877926680375821888e+00
2.874386968353064731e+00
2.856688408239278942e+00
2.835450136102735996e+00
2.813568279962055385e+00
2.792330007825512439e+00
2.764012311643455178e+00
2.723466519382782280e+00
2.687425815151073039e+00
2.668440087029011920e+00
2.663291414995910600e+00
2.665865751012461260e+00
2.664256791002117097e+00
2.648167190898675472e+00
2.604403478617314249e+00
2.546159126242855564e+00
2.485662229853915051e+00
2.418729493423597887e+00
2.349222420976730064e+00
2.289690900593996048e+00
2.238847764267120510e+00
2.181568787898868322e+00
2.111096339445794001e+00
2.032900882943067700e+00
1.949234962405171245e+00
1.851410193776246160e+00
1.746184209099737927e+00
1.663805456570116803e+00
1.621650704299099743e+00
1.636453136394266039e+00
1.724624144961126149e+00
1.877797137945890427e+00
2.076342803222360089e+00
2.303849748685024679e+00
2.523633686098037288e+00
2.724753687391057611e+00
2.892407320468919352e+00
3.009861401224043220e+00
3.054912281513679773e+00
3.030134297354379669e+00
2.960627224907511845e+00
2.860871704266173765e+00
2.736981783469673246e+00
2.580269078462151811e+00
2.383654165198095143e+00
2.162261267774738371e+00
1.968542482529301196e+00
1.827275793621083722e+00
1.756481553165940568e+00
1.767422481236280873e+00
1.865890833869343624e+00
2.034509842953411862e+00
2.243352852296084166e+00
2.455735573661513627e+00
2.649454358906950802e+00
2.822256664017913863e+00
2.971568152977852151e+00
3.078724889666773379e+00
3.148553754115710035e+00
3.183629082341212779e+00
3.182663706335006282e+00
3.138578202051576227e+00
3.052016153495060280e+00
2.924908312677871436e+00
2.780423703748965636e+00
2.633042966801440343e+00
2.489201941876672208e+00
2.369173525104997680e+00
2.284542228560894728e+00
2.254293780366424471e+00
2.269739796465728432e+00
2.327984148840187117e+00
2.420338453433942050e+00
2.517197846056660637e+00
2.600863766594557092e+00
2.654924822942120954e+00
2.671336215047631413e+00
2.658464534964878112e+00
2.618240534706274047e+00
2.560317974333884194e+00
2.489845525880809873e+00
2.424521749460836872e+00
2.385906709212576970e+00
2.386872085218783468e+00
2.429348629491869360e+00
2.504647957975976169e+00
2.596036886563524604e+00
2.687425815151073039e+00
2.763368727639317513e+00
2.811637527949642390e+00
2.833519384090323001e+00
2.830945048073772341e+00
2.808741399931022897e+00
2.781710871757240966e+00
2.757254679600009695e+00
2.733442071446916088e+00
2.701262871240032837e+00
2.653959446935914457e+00
2.597645846573868766e+00
2.530391318141482770e+00
2.462814997707027942e+00
2.400387349305674434e+00
2.338925076910527423e+00
2.272314132482279092e+00
2.206668564060237259e+00
2.161617683770600706e+00
2.136517907609231770e+00
2.118819347495445982e+00
2.097902867360971868e+00
2.075377427216153592e+00
2.072159507195465267e+00
2.094363155338214710e+00
2.140379411634057760e+00
2.213747988105751574e+00
2.297735700645716861e+00
2.364024853071896359e+00
2.400065557303605601e+00
2.410684693371877074e+00
2.412615445384290069e+00
2.425487125467043370e+00
2.441576725570484996e+00
2.459918869688408449e+00
2.473755925777368248e+00
2.476330261793918908e+00
2.479226389812538400e+00
2.487592981866328046e+00
2.517841430060798302e+00
2.582843414478702471e+00
2.680668183107627556e+00
2.807454231922747567e+00
2.956765720882685855e+00
3.097388825786765665e+00
3.209694234508788213e+00
3.290142235025996342e+00
3.338089243334252387e+00
3.350317339412868023e+00
3.326182939257705584e+00
3.260537370835663751e+00
3.148231962113641202e+00
2.989910297095775604e+00
2.801661975885508582e+00
2.622102038731100038e+00
2.482444309833226725e+00
2.396847637282917276e+00
2.366277397086378187e+00
2.369495317107066512e+00
2.389768213237402961e+00
2.423556373454630375e+00
2.472146965767024085e+00
2.534574614168377593e+00
2.591853590536629781e+00
2.635939094820059836e+00
2.669727255037287250e+00
2.685816855140728876e+00
2.666187543014530092e+00
2.602472726604901254e+00
2.497568533930461854e+00
2.364346645073965192e+00
2.207633940066443756e+00
2.039658514986513183e+00
1.889059858018299565e+00
1.794774801412131637e+00
1.758734097180422395e+00
1.774823697283864021e+00
1.858489617821760476e+00
2.010053650796180591e+00
2.210208276082994416e+00
2.434819093527039513e+00
2.652672278927639127e+00
2.844460312160663307e+00
3.004069145186804235e+00
3.119914265931583941e+00
3.200362266448792070e+00
3.246378522744635120e+00
3.252492570783942938e+00
3.210659610514994711e+00
3.123453977954341099e+00
2.996667929139221087e+00
2.855079448228934780e+00
2.707698711281409487e+00
2.569006358389742672e+00
2.453483029647031799e+00
2.379470869171200320e+00
2.363381269067758694e+00
2.401352725311880931e+00
2.471503381762886420e+00
2.554525718296645209e+00
2.635295510815922171e+00
2.714134551322786137e+00
2.774953239713795483e+00
2.811637527949642390e+00
2.823865624028258026e+00
2.815820823976537213e+00
2.789433879806892946e+00
2.766264855657937005e+00
2.758863639610353857e+00
2.773666071705520153e+00
2.790077463811030611e+00
2.792651799827581272e+00
2.777205783728277311e+00
2.748566295544151217e+00
2.710916631302097812e+00
2.674554135068319738e+00
2.651063318917294964e+00
2.644949270877987146e+00
2.649454358906950802e+00
2.659751702973153442e+00
2.671014423045562580e+00
2.677772055089008063e+00
2.674875927070388570e+00
2.664900375006254762e+00
2.652350486925570294e+00
2.634008342807646841e+00
2.606656022631796077e+00
2.569649942393880337e+00
2.531678486149758101e+00
2.502073621959425509e+00
2.477617429802194238e+00
2.447690773609792814e+00
2.421625621442217380e+00
2.418729493423597887e+00
2.454448405653238297e+00
2.514301718038041145e+00
2.586704918503528461e+00
2.669083671033149585e+00
2.755323927587596700e+00
2.824831000034464523e+00
2.867307544307550415e+00
2.884684312419267371e+00
2.885649688425473869e+00
2.879857432388234884e+00
2.862158872274449095e+00
2.833519384090323001e+00
2.791364631819305941e+00
2.731833111436571926e+00
2.646880022890400141e+00
2.532965654158033431e+00
2.400065557303605601e+00
2.256546324380906299e+00
2.117853971489239484e+00
2.014236946823075414e+00
1.965968146512750536e+00
1.967577106523094699e+00
2.010053650796180591e+00
2.086318355286493897e+00
2.176420115865767002e+00
2.255580948374699801e+00
2.307711252709850669e+00
2.325731604825705290e+00
2.300310036662267521e+00
2.230481172213330865e+00
2.136196115607162938e+00
2.048990483046509326e+00
1.993320466688601300e+00
2.009731858794111758e+00
2.132656403584405780e+00
2.336994324898114428e+00
2.581234454468358308e+00
2.829336088063428178e+00
3.047511065466096625e+00
3.221600538585335016e+00
3.342916123365284875e+00
3.404056603758363053e+00
3.408883483789395541e+00
3.363510811497690156e+00
3.270834714901866391e+00
3.133107738016406074e+00
2.967063064948888496e+00
2.799409431871026754e+00
2.665543959010392427e+00
2.574476822424912825e+00
2.527816982124932110e+00
2.527173398120794445e+00
2.559352598327677697e+00
2.614379030681448057e+00
2.683242519124178216e+00
2.759185431612422690e+00
2.838346264121355489e+00
2.914289176609599963e+00
2.976073241006815806e+00
3.013401113246800378e+00
3.032065049366792664e+00
3.023698457313003018e+00
2.987335961079224944e+00
2.930378776713041589e+00
2.859584536257898435e+00
2.791364631819305941e+00
2.736981783469673246e+00
2.688069399155210704e+00
2.633042966801440343e+00
2.573511446418706328e+00
2.518163222062867135e+00
2.473112341773230582e+00
2.442542101576691493e+00
2.426774293475318700e+00
2.427096085477387533e+00
2.441254933568416163e+00
2.464745749719440937e+00
2.492419861897360533e+00
2.520093974075280130e+00
2.540366870205616578e+00
2.540688662207685411e+00
2.524277270102174953e+00
2.484696853847708553e+00
2.409719317365670577e+00
2.298701076651923358e+00
2.160330515762325376e+00
2.013593362818937749e+00
1.878118929947959259e+00
1.759055889182491228e+00
1.680216848675627261e+00
1.673459216632181779e+00
1.751976465136976913e+00
1.905149458121741191e+00
2.104016915400279686e+00
2.321870100800879300e+00
2.536827158182859421e+00
2.738590743480017409e+00
2.920725016650976613e+00
3.069392921606777236e+00
3.169470234250184149e+00
3.211946778523270041e+00
3.186847002361901104e+00
3.095458073774352670e+00
2.950008088839240372e+00
2.779458327742759138e+00
2.619205910712480545e+00
2.498855701938737184e+00
2.437715221545659006e+00
2.439645973558072001e+00
2.504004373971838504e+00
2.611482902662828565e+00
2.734729239455191419e+00
2.855401240231003612e+00
2.963845144928200170e+00
3.051694361492991447e+00
3.111225881875725463e+00
3.132464154012268409e+00
3.114122009894344956e+00
3.066818585590226576e+00
2.991841049108188599e+00
2.890798360458575189e+00
2.770448151684831828e+00
2.630146838782820851e+00
2.472468757769092917e+00
2.314147092751227319e+00
2.178994451882317662e+00
2.094684947340283543e+00
2.067332627164432779e+00
2.090179859311319888e+00
2.169018899818183854e+00
2.296448532637441531e+00
2.439967765560140833e+00
2.578660118451807648e+00
2.707376919279340655e+00
2.826118168042739853e+00
2.935527448746142909e+00
3.025629209325416014e+00
3.094170905766077340e+00
3.131820570008130744e+00
3.141474330070195720e+00
3.123775769956409931e+00
3.083551769697805867e+00
3.033674009377136827e+00
2.975429657002678141e+00
2.905922584555810317e+00
2.818716951995156705e+00
2.716708887339336798e+00
2.602794518606970087e+00
2.485984021855983883e+00
2.385263125208439305e+00
2.314790676755364984e+00
2.277462804515380412e+00
2.266843668447108939e+00
2.278428180521586910e+00
2.313503508747089654e+00
2.368208149098791182e+00
2.426774293475318700e+00
2.475686677789781243e+00
2.509796630009077489e+00
2.522346518089761958e+00
2.499821077944943681e+00
2.437071637541521341e+00
2.350831380987074226e+00
2.263947540428489447e+00
2.208599316072650254e+00
2.200876308022998273e+00
2.229194004205055535e+00
2.285829396569170058e+00
2.363703061069827527e+00
2.450586901628412306e+00
2.531678486149758101e+00
2.593784342549042776e+00
2.636260886822128668e+00
2.666509335016598925e+00
2.676163095078663900e+00
2.666831127018667758e+00
2.646558230888331309e+00
2.606334230629727244e+00
2.558387222321471199e+00
2.518163222062867135e+00
2.500142869947012514e+00
2.512049174023559317e+00
2.549698838265612721e+00
2.605047062621451914e+00
2.664900375006254762e+00
2.701262871240032837e+00
2.695148823200725019e+00
2.637548054830403998e+00
2.550664214271819219e+00
2.485018645849777386e+00
2.482444309833226725e+00
2.553238550288369879e+00
2.670370839041424915e+00
2.800053015875164419e+00
2.918472472636494786e+00
3.012757529242662713e+00
3.075185177644016221e+00
3.101893913815729320e+00
3.091918361751595512e+00
3.051050777488853782e+00
2.986048793070949614e+00
2.906244376557879150e+00
2.803270935895852745e+00
2.672623383055906743e+00
2.518806806067004800e+00
2.349866004980867729e+00
2.187039251934038475e+00
2.061540371127193794e+00
1.974978322570677847e+00
1.926709522260352969e+00
1.922526226233458146e+00
1.978839826595503837e+00
2.108522003429243341e+00
2.297092116641579196e+00
2.504647957975976169e+00
2.697723159217275679e+00
2.857975576247554272e+00
2.976073241006815806e+00
3.053625113505404443e+00
3.091274777747457847e+00
3.101572121813660488e+00
3.092561945755733177e+00
3.071001881617121398e+00
3.042040601430926472e+00
3.017262617271626368e+00
2.995380761130945757e+00
2.959018264897167683e+00
2.912358424597186968e+00
2.852183320210315287e+00
2.779458327742759138e+00
2.699332119227619842e+00
2.617918742704205215e+00
2.544228374230442569e+00
2.488880149874603376e+00
2.453483029647031799e+00
2.426774293475318700e+00
2.411650069378083572e+00
2.417120533413253725e+00
2.439324181556003168e+00
2.482122517831157893e+00
2.542619414220098406e+00
2.609230358648346737e+00
2.667796503024874255e+00
2.708342295285547152e+00
2.716065303335199133e+00
2.681955351115902886e+00
2.600863766594557092e+00
2.480513557820813730e+00
2.324444436817429960e+00
2.142631955648539588e+00
1.965002770506544039e+00
1.819230993569362909e+00
1.741357329068705440e+00
1.758090513176284730e+00
1.863638289854861796e+00
2.035797010961687192e+00
2.246570772316772491e+00
2.483409685839433223e+00
2.726362647401401773e+00
2.943894040799932554e+00
3.098032409790903330e+00
3.181054746324662119e+00
3.208407066500512883e+00
3.191995674395002425e+00
3.154989594157086685e+00
3.121845017943996936e+00
3.086447897716425359e+00
3.039788057416444644e+00
2.985083417064743116e+00
2.921046808653045446e+00
2.840598808135837317e+00
2.742452247504843399e+00
2.647201814892468974e+00
2.568040982383536175e+00
2.517519638058729470e+00
2.492419861897360533e+00
2.470859797758748755e+00
2.443829269584966823e+00
2.417442325415322557e+00
2.393629717262228951e+00
2.379149077169131488e+00
2.386550293216714635e+00
2.425487125467043370e+00
2.485984021855983883e+00
2.543906582228373736e+00
2.585095958493184298e+00
2.607621398638002574e+00
2.618240534706274047e+00
2.630468630784889683e+00
2.644627478875918314e+00
2.650097942911088467e+00
2.636904470826266333e+00
2.609230358648346737e+00
2.576407574437325820e+00
2.536827158182859421e+00
2.489523733878741041e+00
2.446081813599448651e+00
2.404892437334638089e+00
2.362415893061552197e+00
2.333132820873288438e+00
2.326053396827774122e+00
2.338281492906389758e+00
2.359197973040863872e+00
2.368208149098791182e+00
2.360806933051208034e+00
2.352762132999487221e+00
2.353083925001556054e+00
2.359197973040863872e+00
2.377861909160856158e+00
2.417120533413253725e+00
2.480513557820813730e+00
2.562570518348366022e+00
2.643018518865574151e+00
2.697401367215206847e+00
2.711560215306235477e+00
2.681633559113834053e+00
2.606977814633864909e+00
2.490489109884947538e+00
2.348900628974661231e+00
2.220505620149197057e+00
2.127829523553373292e+00
2.088892691303044558e+00
2.106913043418899179e+00
2.170306067826459184e+00
2.289369108591927215e+00
2.465711125725647435e+00
2.671979799051769078e+00
2.871812632336514071e+00
3.046867481461958960e+00
3.184916250349488109e+00
3.277592346945311874e+00
3.319747099216328934e+00
3.312024091166676953e+00
3.260537370835663751e+00
3.179445786314317957e+00
3.081621017685392871e+00
2.980900121037848294e+00
2.881466392398579046e+00
2.784285207773791626e+00
2.687747607153141871e+00
2.597324054571799934e+00
2.514301718038041145e+00
2.433853717520833015e+00
2.360485141049139202e+00
2.306745876703644171e+00
2.292587028612615541e+00
2.314468884753296152e+00
2.362094101059483364e+00
2.424199957458768040e+00
2.496603157924255356e+00
2.561605142342159525e+00
2.599898390588350594e+00
2.610195734654553235e+00
2.593784342549042776e+00
2.543584790226304904e+00
2.473434133775299415e+00
2.408432149357395247e+00
2.367886357096722350e+00
2.347613460966385901e+00
2.341177620925009251e+00
2.354049301007762551e+00
2.382045205187750980e+00
2.420016661431873217e+00
2.469250837748404592e+00
2.531678486149758101e+00
2.612126486666966230e+00
2.706089751271065325e+00
2.802627351891715080e+00
2.893050904473057017e+00
2.972533528984058648e+00
3.030134297354379669e+00
3.055555865517817438e+00
3.048476441472303122e+00
3.011792153236456215e+00
2.948077336826827377e+00
2.863124248280655593e+00
2.762725143635179847e+00
2.661038870981428772e+00
2.575442198431119323e+00
2.511083798017352819e+00
2.467641877738060430e+00
2.448012565611861646e+00
2.458953493682201952e+00
2.496281365922186524e+00
2.553560342290438712e+00
2.625641750753857195e+00
2.696757783211069182e+00
2.757254679600009695e+00
2.796513303852407262e+00
2.809706775937229395e+00
2.798122263862751424e+00
2.762725143635179847e+00
2.703515415254514664e+00
2.626928918762132525e+00
2.534896406170446426e+00
2.433531925518764183e+00
2.330236692854668945e+00
2.235629844246432185e+00
2.159686931758187711e+00
2.104016915400279686e+00
2.059609619114780799e+00
2.020994578866520897e+00
1.999756306729977950e+00
2.013915154821006581e+00
2.063471123139606789e+00
2.132012819580268115e+00
2.196693011996103451e+00
2.246248980314703658e+00
2.287760148581583053e+00
2.347935252968454733e+00
2.438358805549796671e+00
2.536827158182859421e+00
2.617596950702136382e+00
2.683564311126247048e+00
2.745348375523462892e+00
2.794260759837925434e+00
2.824187416030326858e+00
2.832554008084116504e+00
2.825796376040671021e+00
2.797156887856544927e+00
2.750818839558633044e+00
2.698688535223482177e+00
2.656533782952465117e+00
2.653959446935914457e+00
2.690965527173830196e+00
2.760150807618629187e+00
2.836415512108942494e+00
2.893694488477194682e+00
2.922012184659251943e+00
2.921690392657183111e+00
2.897555992502020672e+00
2.851861528208246455e+00
2.791686423821374774e+00
2.728936983417952433e+00
2.659429910971084610e+00
2.582199830474564806e+00
2.503360789967700839e+00
2.425165333464974537e+00
2.357910805032588542e+00
2.303206164680887014e+00
2.258477076393319294e+00
2.227263252192642540e+00
2.219862036145059392e+00
2.228872212202986702e+00
2.254615572368493304e+00
2.302240788674680516e+00
2.371104277117410675e+00
2.452839445642894134e+00
2.544228374230442569e+00
2.639800598844885826e+00
2.731511319434503093e+00
2.819038743997225538e+00
2.894338072481332347e+00
2.950329880841309205e+00
2.988301337085431442e+00
3.015975449263351038e+00
3.028847129346104339e+00
3.024985625321278349e+00
3.003103769180597737e+00
2.961592600913718343e+00
2.900130328518571332e+00
2.814855447970330715e+00
2.706089751271065325e+00
2.580269078462151811e+00
2.447690773609792814e+00
2.338281492906389758e+00
2.273923092492623255e+00
2.275532052502967417e+00
2.332489236869150773e+00
2.414224405394634232e+00
2.504326165973907337e+00
2.586704918503528461e+00
2.646236438886262476e+00
2.669083671033149585e+00
2.646880022890400141e+00
2.583165206480771303e+00
2.478261013806331903e+00
2.348257044970523566e+00
2.212139028095407411e+00
2.089858067309251055e+00
1.991389714676188305e+00
1.923169810237595811e+00
1.901609746098984033e+00
1.926709522260352969e+00
2.009731858794111758e+00
2.150033171696122736e+00
2.327018772833980620e+00
2.502073621959425509e+00
2.641409558855229989e+00
2.720892183366231620e+00
2.734407447453122586e+00
2.680989975109696388e+00
2.590888214530423284e+00
2.508509462000802159e+00
2.455413781659444794e+00
2.456057365663582459e+00
2.512370966025628150e+00
2.611482902662828565e+00
2.730545943428296596e+00
2.838668056123424321e+00
2.925230104679940268e+00
2.986370585073018447e+00
3.032386841368861496e+00
3.060060953546781093e+00
3.061348121555056423e+00
